LagTime	Correlation

0	0.666213
0.1	0.661195
0.2	0.653711
0.3	0.645681
0.4	0.637589
0.5	0.629562
0.6	0.621632
0.7	0.6138
0.8	0.606063
0.9	0.598422
1	0.590881
1.1	0.583432
1.2	0.576077
1.3	0.568814
1.4	0.561647
1.5	0.554574
1.6	0.547594
1.7	0.540705
1.8	0.533906
1.9	0.527197
2	0.52057
2.1	0.514023
2.2	0.50756
2.3	0.501183
2.4	0.494892
2.5	0.48868
2.6	0.482545
2.7	0.476484
2.8	0.470497
2.9	0.464579
3	0.458733
3.1	0.45296
3.2	0.447264
3.3	0.441642
3.4	0.436087
3.5	0.4306
3.6	0.425178
3.7	0.41982
3.8	0.414527
3.9	0.409299
4	0.404136
4.1	0.39904
4.2	0.394014
4.3	0.389052
4.4	0.384148
4.5	0.379301
4.6	0.374515
4.7	0.369789
4.8	0.365122
4.9	0.360517
5	0.355974
5.1	0.351492
5.2	0.347067
5.3	0.342701
5.4	0.338391
5.5	0.33413
5.6	0.329919
5.7	0.325763
5.8	0.321665
5.9	0.317625
6	0.313638
6.1	0.309701
6.2	0.305812
6.3	0.301969
6.4	0.298173
6.5	0.294426
6.6	0.290728
6.7	0.287079
6.8	0.283478
6.9	0.279925
7	0.276417
7.1	0.272956
7.2	0.269543
7.3	0.266173
7.4	0.262844
7.5	0.259558
7.6	0.256315
7.7	0.253114
7.8	0.249958
7.9	0.246844
8	0.243769
8.1	0.240728
8.2	0.237722
8.3	0.23475
8.4	0.231816
8.5	0.22892
8.6	0.226062
8.7	0.223239
8.8	0.220452
8.9	0.217701
9	0.21498
9.1	0.212289
9.2	0.209637
9.3	0.207025
9.4	0.204444
9.5	0.201897
9.6	0.199385
9.7	0.196905
9.8	0.194451
9.9	0.192023
10	0.189627
10.1	0.187261
10.2	0.184926
10.3	0.182623
10.4	0.180342
10.5	0.178086
10.6	0.175857
10.7	0.173654
10.8	0.171475
10.9	0.169324
11	0.167198
11.1	0.165099
11.2	0.16303
11.3	0.160989
11.4	0.158973
11.5	0.156979
11.6	0.155007
11.7	0.153058
11.8	0.151131
11.9	0.149225
12	0.147346
12.1	0.145494
12.2	0.143671
12.3	0.141879
12.4	0.140109
12.5	0.138355
12.6	0.136623
12.7	0.134913
12.8	0.133223
12.9	0.13155
13	0.129902
13.1	0.128275
13.2	0.126668
13.3	0.125083
13.4	0.123521
13.5	0.121979
13.6	0.120455
13.7	0.118949
13.8	0.117456
13.9	0.115978
14	0.11452
14.1	0.113085
14.2	0.111672
14.3	0.110278
14.4	0.108901
14.5	0.107541
14.6	0.106205
14.7	0.104887
14.8	0.103586
14.9	0.102304
15	0.101039
15.1	0.0997857
15.2	0.0985476
15.3	0.0973217
15.4	0.0961094
15.5	0.0949064
15.6	0.0937166
15.7	0.0925483
15.8	0.0913969
15.9	0.0902641
16	0.0891502
16.1	0.0880519
16.2	0.0869715
16.3	0.0859043
16.4	0.0848531
16.5	0.083816
16.6	0.0827927
16.7	0.0817783
16.8	0.0807789
16.9	0.0797971
17	0.0788272
17.1	0.0778688
17.2	0.0769197
17.3	0.0759773
17.4	0.07504
17.5	0.0741119
17.6	0.0731942
17.7	0.0722866
17.8	0.0713892
17.9	0.070502
18	0.0696225
18.1	0.0687571
18.2	0.0679032
18.3	0.0670602
18.4	0.0662225
18.5	0.0653825
18.6	0.0645461
18.7	0.0637239
18.8	0.0629182
18.9	0.0621256
19	0.0613429
19.1	0.0605666
19.2	0.0598006
19.3	0.0590458
19.4	0.0583008
19.5	0.0575676
19.6	0.056845
19.7	0.0561303
19.8	0.0554278
19.9	0.0547376
20	0.0540604
20.1	0.0533943
20.2	0.0527392
20.3	0.0520954
20.4	0.0514583
20.5	0.0508301
20.6	0.0502045
20.7	0.0495825
20.8	0.0489641
20.9	0.0483541
21	0.047754
21.1	0.0471663
21.2	0.0465911
21.3	0.0460248
21.4	0.0454668
21.5	0.044912
21.6	0.0443613
21.7	0.0438188
21.8	0.0432872
21.9	0.0427634
22	0.0422457
22.1	0.0417326
22.2	0.0412225
22.3	0.0407181
22.4	0.0402227
22.5	0.039729
22.6	0.0392371
22.7	0.0387523
22.8	0.038271
22.9	0.0377887
23	0.0373106
23.1	0.0368392
23.2	0.0363773
23.3	0.035927
23.4	0.0354812
23.5	0.0350341
23.6	0.0345863
23.7	0.034143
23.8	0.033703
23.9	0.033265
24	0.0328288
24.1	0.032399
24.2	0.0319792
24.3	0.0315636
24.4	0.0311547
24.5	0.0307521
24.6	0.0303567
24.7	0.0299636
24.8	0.029571
24.9	0.02918
25	0.0287956
25.1	0.0284214
25.2	0.0280535
25.3	0.0276932
25.4	0.0273357
25.5	0.0269843
25.6	0.026637
25.7	0.0262942
25.8	0.0259554
25.9	0.0256234
26	0.0252967
26.1	0.0249769
26.2	0.0246673
26.3	0.0243619
26.4	0.0240623
26.5	0.0237652
26.6	0.0234683
26.7	0.0231724
26.8	0.022879
26.9	0.0225842
27	0.0222894
27.1	0.0219941
27.2	0.021705
27.3	0.0214201
27.4	0.0211382
27.5	0.0208617
27.6	0.0205853
27.7	0.0203092
27.8	0.0200337
27.9	0.0197575
28	0.019484
28.1	0.0192112
28.2	0.0189395
28.3	0.0186711
28.4	0.0184111
28.5	0.0181581
28.6	0.0179136
28.7	0.0176772
28.8	0.017444
28.9	0.0172184
29	0.0169991
29.1	0.0167857
29.2	0.0165785
29.3	0.0163785
29.4	0.0161905
29.5	0.0160121
29.6	0.0158335
29.7	0.0156497
29.8	0.0154602
29.9	0.0152682
30	0.0150722
30.1	0.0148794
30.2	0.014688
30.3	0.0144954
30.4	0.014297
30.5	0.014096
30.6	0.0138933
30.7	0.013692
30.8	0.0134902
30.9	0.0132983
31	0.0131093
31.1	0.0129198
31.2	0.0127346
31.3	0.0125508
31.4	0.0123651
31.5	0.012183
31.6	0.0120059
31.7	0.0118299
31.8	0.0116557
31.9	0.011479
32	0.0113055
32.1	0.0111354
32.2	0.0109642
32.3	0.0107932
32.4	0.0106225
32.5	0.0104569
32.6	0.0102951
32.7	0.0101294
32.8	0.00996221
32.9	0.00979208
33	0.00962436
33.1	0.0094665
33.2	0.00931854
33.3	0.0091746
33.4	0.00903301
33.5	0.00889489
33.6	0.00875683
33.7	0.00862592
33.8	0.00850051
33.9	0.00837895
34	0.00825919
34.1	0.0081384
34.2	0.00802031
34.3	0.00790973
34.4	0.00780165
34.5	0.00769506
34.6	0.00759545
34.7	0.00750367
34.8	0.00741926
34.9	0.00733792
35	0.00726144
35.1	0.00718696
35.2	0.00711983
35.3	0.00705573
35.4	0.00699458
35.5	0.0069318
35.6	0.00686673
35.7	0.00680116
35.8	0.0067329
35.9	0.00666432
36	0.00659369
36.1	0.00652055
36.2	0.0064431
36.3	0.00636311
36.4	0.00627765
36.5	0.0061923
36.6	0.00611185
36.7	0.00603707
36.8	0.00596814
36.9	0.00590468
37	0.00584655
37.1	0.00579073
37.2	0.00573294
37.3	0.00567296
37.4	0.00561419
37.5	0.00555303
37.6	0.00548966
37.7	0.00543005
37.8	0.00537134
37.9	0.00531105
38	0.00524729
38.1	0.00518134
38.2	0.00511744
38.3	0.00505353
38.4	0.00499396
38.5	0.0049344
38.6	0.00487336
38.7	0.00481293
38.8	0.00474896
38.9	0.00468295
39	0.00461714
39.1	0.00455245
39.2	0.00449398
39.3	0.00443671
39.4	0.00438272
39.5	0.00433412
39.6	0.0042872
39.7	0.00424378
39.8	0.0041994
39.9	0.00415657
40	0.00411328
40.1	0.00406969
40.2	0.00402619
40.3	0.0039845
40.4	0.0039413
40.5	0.00389712
40.6	0.00384917
40.7	0.00380023
40.8	0.00375909
40.9	0.00371981
41	0.00367893
41.1	0.00364479
41.2	0.0036194
41.3	0.00359808
41.4	0.00358273
41.5	0.0035704
41.6	0.00355588
41.7	0.00353747
41.8	0.00351643
41.9	0.00349134
42	0.00346582
42.1	0.00344235
42.2	0.00341674
42.3	0.0033881
42.4	0.00336228
42.5	0.0033347
42.6	0.00331041
42.7	0.00327934
42.8	0.00324736
42.9	0.00321612
43	0.00318198
43.1	0.00314814
43.2	0.00311864
43.3	0.00309496
43.4	0.00307641
43.5	0.00306169
43.6	0.00304752
43.7	0.00303258
43.8	0.00301534
43.9	0.00299832
44	0.00297882
44.1	0.00295783
44.2	0.0029361
44.3	0.00291538
44.4	0.00289522
44.5	0.00287701
44.6	0.00286269
44.7	0.00285112
44.8	0.00283548
44.9	0.0028205
45	0.00280437
45.1	0.00278838
45.2	0.00277227
45.3	0.00275397
45.4	0.002738
45.5	0.00272307
45.6	0.00270517
45.7	0.00268595
45.8	0.00266087
45.9	0.002634
46	0.00260912
46.1	0.0025858
46.2	0.00256236
46.3	0.00253462
46.4	0.00250195
46.5	0.00247058
46.6	0.00244224
46.7	0.00241464
46.8	0.0023845
46.9	0.00235649
47	0.00233467
47.1	0.00231314
47.2	0.00228791
47.3	0.00225894
47.4	0.00223133
47.5	0.0022032
47.6	0.00217667
47.7	0.0021551
47.8	0.00213627
47.9	0.00211772
48	0.0020973
48.1	0.00208043
48.2	0.00206317
48.3	0.00204991
48.4	0.00204436
48.5	0.00204178
48.6	0.00204266
48.7	0.00204449
48.8	0.00204151
48.9	0.0020306
49	0.00201347
49.1	0.001993
49.2	0.00196975
49.3	0.0019419
49.4	0.001911
49.5	0.00187758
49.6	0.00184326
49.7	0.00180902
49.8	0.00177403
49.9	0.00173717
50	0.00170117
50.1	0.00166643
50.2	0.00163071
50.3	0.00160059
50.4	0.00157419
50.5	0.00154435
50.6	0.00151194
50.7	0.00147886
50.8	0.00144691
50.9	0.00141592
51	0.0013876
51.1	0.00136021
51.2	0.00133173
51.3	0.00130023
51.4	0.00126634
51.5	0.00123285
51.6	0.00120148
51.7	0.00117305
51.8	0.00114408
51.9	0.00111419
52	0.0010833
52.1	0.00104713
52.2	0.00101459
52.3	0.000988094
52.4	0.000959801
52.5	0.000924787
52.6	0.000887039
52.7	0.00085292
52.8	0.00081987
52.9	0.000790503
53	0.00076552
53.1	0.000742673
53.2	0.000718955
53.3	0.000699155
53.4	0.000686972
53.5	0.000678766
53.6	0.000666898
53.7	0.000649716
53.8	0.00063055
53.9	0.000610506
54	0.000584585
54.1	0.000551309
54.2	0.000512909
54.3	0.000469078
54.4	0.000426297
54.5	0.000385334
54.6	0.000344221
54.7	0.000305844
54.8	0.000276281
54.9	0.000252899
55	0.000225508
55.1	0.000190469
55.2	0.000154953
55.3	0.000116409
55.4	7.38515e-05
55.5	3.57386e-05
55.6	-1.3376e-06
55.7	-3.976e-05
55.8	-7.51518e-05
55.9	-0.000113357
56	-0.000156692
56.1	-0.00019864
56.2	-0.000235237
56.3	-0.000268555
56.4	-0.000299087
56.5	-0.000323526
56.6	-0.000346519
56.7	-0.000367823
56.8	-0.000386258
56.9	-0.000406281
57	-0.000428519
57.1	-0.000448121
57.2	-0.000471484
57.3	-0.000495846
57.4	-0.000519667
57.5	-0.000542775
57.6	-0.000562185
57.7	-0.000579289
57.8	-0.000582771
57.9	-0.000582272
58	-0.000581858
58.1	-0.000582935
58.2	-0.000588285
58.3	-0.000589514
58.4	-0.000583463
58.5	-0.000576524
58.6	-0.000575131
58.7	-0.000576047
58.8	-0.000577343
58.9	-0.000576056
59	-0.000571643
59.1	-0.000567593
59.2	-0.000563665
59.3	-0.000566041
59.4	-0.000572812
59.5	-0.000573306
59.6	-0.000567264
59.7	-0.000559918
59.8	-0.000554166
59.9	-0.00055108
60	-0.000551997
60.1	-0.000551007
60.2	-0.000543144
60.3	-0.000530038
60.4	-0.000513971
60.5	-0.000492119
60.6	-0.000466513
60.7	-0.000439751
60.8	-0.000411522
60.9	-0.000374989
61	-0.000338769
61.1	-0.00030308
61.2	-0.000274308
61.3	-0.000251961
61.4	-0.000228634
61.5	-0.000202401
61.6	-0.000179869
61.7	-0.000164057
61.8	-0.00014844
61.9	-0.000127422
62	-0.000106971
62.1	-8.69355e-05
62.2	-6.76445e-05
62.3	-4.84649e-05
62.4	-3.11396e-05
62.5	-1.6144e-05
62.6	-2.90446e-06
62.7	9.3156e-06
62.8	1.51759e-05
62.9	1.40335e-05
63	7.2956e-06
63.1	-3.38759e-06
63.2	-1.82208e-05
63.3	-3.77598e-05
63.4	-6.08824e-05
63.5	-8.54152e-05
63.6	-0.000107903
63.7	-0.000125162
63.8	-0.000142732
63.9	-0.000166135
64	-0.000192406
64.1	-0.000218582
64.2	-0.000245217
64.3	-0.000274458
64.4	-0.000303717
64.5	-0.000333882
64.6	-0.000367964
64.7	-0.000403621
64.8	-0.000441707
64.9	-0.000477983
65	-0.000510603
65.1	-0.000542435
65.2	-0.00057403
65.3	-0.000604078
65.4	-0.000634591
65.5	-0.000666632
65.6	-0.000703095
65.7	-0.000738046
65.8	-0.000767938
65.9	-0.000795361
66	-0.000820274
66.1	-0.000836982
66.2	-0.000850178
66.3	-0.000867598
66.4	-0.000884526
66.5	-0.000900056
66.6	-0.000913714
66.7	-0.00092611
66.8	-0.000937664
66.9	-0.000950272
67	-0.000969796
67.1	-0.000993493
67.2	-0.00101478
67.3	-0.0010362
67.4	-0.00105953
67.5	-0.00108232
67.6	-0.00110324
67.7	-0.00112912
67.8	-0.00115784
67.9	-0.00118762
68	-0.00121892
68.1	-0.00124969
68.2	-0.00128046
68.3	-0.00131037
68.4	-0.00133818
68.5	-0.00135988
68.6	-0.00137664
68.7	-0.00139106
68.8	-0.0014109
68.9	-0.00143141
69	-0.00145778
69.1	-0.00148993
69.2	-0.00152671
69.3	-0.00156608
69.4	-0.00160285
69.5	-0.00163684
69.6	-0.00166696
69.7	-0.0016931
69.8	-0.00171643
69.9	-0.0017396
70	-0.00176522
70.1	-0.00179576
70.2	-0.00182725
70.3	-0.00185958
70.4	-0.00189653
70.5	-0.00193077
70.6	-0.0019611
70.7	-0.00198714
70.8	-0.00200796
70.9	-0.00202652
71	-0.00204852
71.1	-0.00207332
71.2	-0.00209973
71.3	-0.00212778
71.4	-0.00215619
71.5	-0.00218222
71.6	-0.00220438
71.7	-0.0022262
71.8	-0.00224936
71.9	-0.00227361
72	-0.00229802
72.1	-0.00232334
72.2	-0.00234914
72.3	-0.00237549
72.4	-0.00240227
72.5	-0.0024276
72.6	-0.00245481
72.7	-0.00248113
72.8	-0.0025124
72.9	-0.00254462
73	-0.00257822
73.1	-0.00261419
73.2	-0.00265036
73.3	-0.00268903
73.4	-0.00272558
73.5	-0.00276172
73.6	-0.00279956
73.7	-0.00283491
73.8	-0.00286588
73.9	-0.00288962
74	-0.00290757
74.1	-0.00292272
74.2	-0.00293712
74.3	-0.00294976
74.4	-0.00296043
74.5	-0.00297204
74.6	-0.00298567
74.7	-0.00299844
74.8	-0.00300911
74.9	-0.00302089
75	-0.00303119
75.1	-0.00304446
75.2	-0.00305868
75.3	-0.00306998
75.4	-0.00307649
75.5	-0.00308288
75.6	-0.00308885
75.7	-0.00309168
75.8	-0.00309822
75.9	-0.00310544
76	-0.0031092
76.1	-0.00310798
76.2	-0.00310462
76.3	-0.00309907
76.4	-0.00308955
76.5	-0.00307948
76.6	-0.00306974
76.7	-0.00306408
76.8	-0.00306182
76.9	-0.0030617
77	-0.0030644
77.1	-0.00306984
77.2	-0.00307426
77.3	-0.00307865
77.4	-0.00307811
77.5	-0.00307525
77.6	-0.00306915
77.7	-0.00305867
77.8	-0.00304702
77.9	-0.00303477
78	-0.00302109
78.1	-0.00300894
78.2	-0.00300146
78.3	-0.00299598
78.4	-0.00299462
78.5	-0.00299412
78.6	-0.00299512
78.7	-0.00299411
78.8	-0.00299257
78.9	-0.00298952
79	-0.00298673
79.1	-0.0029794
79.2	-0.00296828
79.3	-0.00295726
79.4	-0.00294545
79.5	-0.00293377
79.6	-0.00292392
79.7	-0.00291118
79.8	-0.00289978
79.9	-0.00289283
80	-0.00289233
80.1	-0.00289363
80.2	-0.00289882
80.3	-0.00290145
80.4	-0.00289975
80.5	-0.00289383
80.6	-0.00288957
80.7	-0.00288323
80.8	-0.00287709
80.9	-0.00286873
81	-0.00285867
81.1	-0.00284696
81.2	-0.00283211
81.3	-0.00281349
81.4	-0.0027962
81.5	-0.00277676
81.6	-0.00275473
81.7	-0.00272986
81.8	-0.00270383
81.9	-0.00267817
82	-0.00265588
82.1	-0.00263828
82.2	-0.00262137
82.3	-0.00260798
82.4	-0.00259461
82.5	-0.00258221
82.6	-0.00256953
82.7	-0.0025568
82.8	-0.00254579
82.9	-0.00253526
83	-0.00252877
83.1	-0.00252831
83.2	-0.00252857
83.3	-0.00253109
83.4	-0.00253239
83.5	-0.002534
83.6	-0.00253375
83.7	-0.00253867
83.8	-0.00254483
83.9	-0.00255055
84	-0.00255562
84.1	-0.00256126
84.2	-0.00256917
84.3	-0.00257565
84.4	-0.00258221
84.5	-0.00258723
84.6	-0.00260144
84.7	-0.00261793
84.8	-0.00263603
84.9	-0.00265381
85	-0.00266934
85.1	-0.00268334
85.2	-0.00269657
85.3	-0.00271043
85.4	-0.0027229
85.5	-0.00273562
85.6	-0.002746
85.7	-0.00275481
85.8	-0.00276499
85.9	-0.00277648
86	-0.00278197
86.1	-0.00278289
86.2	-0.00278128
86.3	-0.00277768
86.4	-0.00276931
86.5	-0.00275498
86.6	-0.00273553
86.7	-0.00271229
86.8	-0.00268562
86.9	-0.00266177
87	-0.0026424
87.1	-0.00262134
87.2	-0.00259922
87.3	-0.00257421
87.4	-0.00254941
87.5	-0.00252313
87.6	-0.0024971
87.7	-0.00247404
87.8	-0.00245393
87.9	-0.00243413
88	-0.00241592
88.1	-0.00239485
88.2	-0.00237067
88.3	-0.00234538
88.4	-0.00231776
88.5	-0.00228705
88.6	-0.00225373
88.7	-0.00221714
88.8	-0.00217831
88.9	-0.00214146
89	-0.00210481
89.1	-0.00207088
89.2	-0.00203785
89.3	-0.00200759
89.4	-0.0019807
89.5	-0.00195617
89.6	-0.00193639
89.7	-0.00192355
89.8	-0.00191183
89.9	-0.00189419
90	-0.0018787
90.1	-0.00186321
90.2	-0.00184472
90.3	-0.00182512
90.4	-0.00180514
90.5	-0.00178089
90.6	-0.00174993
90.7	-0.00171874
90.8	-0.00168893
90.9	-0.00166134
91	-0.00163524
91.1	-0.00161297
91.2	-0.00159063
91.3	-0.00157159
91.4	-0.00155649
91.5	-0.00154013
91.6	-0.00152411
91.7	-0.00150581
91.8	-0.00148662
91.9	-0.00146895
92	-0.00145174
92.1	-0.00143857
92.2	-0.00142186
92.3	-0.00140365
92.4	-0.00138229
92.5	-0.00135517
92.6	-0.00132548
92.7	-0.00129878
92.8	-0.00126834
92.9	-0.00123449
93	-0.00120064
93.1	-0.00116967
93.2	-0.00113828
93.3	-0.00110226
93.4	-0.0010631
93.5	-0.00101922
93.6	-0.000972637
93.7	-0.000923709
93.8	-0.000873862
93.9	-0.000826103
94	-0.000775961
94.1	-0.000728871
94.2	-0.000679737
94.3	-0.000631643
94.4	-0.000585398
94.5	-0.000543729
94.6	-0.000501225
94.7	-0.000456763
94.8	-0.00040704
94.9	-0.000354451
95	-0.000302487
95.1	-0.000258792
95.2	-0.000218771
95.3	-0.000182149
95.4	-0.000145385
95.5	-0.000112096
95.6	-8.16784e-05
95.7	-5.0127e-05
95.8	-1.85389e-05
95.9	1.34806e-05
96	4.29679e-05
96.1	6.89733e-05
96.2	9.3922e-05
96.3	0.000120615
96.4	0.000147875
96.5	0.000174167
96.6	0.000199522
96.7	0.000216401
96.8	0.000224272
96.9	0.000229819
97	0.000236197
97.1	0.000241605
97.2	0.000245614
97.3	0.000242283
97.4	0.000241953
97.5	0.000246236
97.6	0.000250879
97.7	0.000256079
97.8	0.00026159
97.9	0.000266935
98	0.000274176
98.1	0.000284287
98.2	0.000293277
98.3	0.000305079
98.4	0.000316453
98.5	0.000328229
98.6	0.000341915
98.7	0.000357596
98.8	0.00037704
98.9	0.000399471
99	0.000423786
99.1	0.000449656
99.2	0.000480252
99.3	0.000512944
99.4	0.000543243
99.5	0.000574184
99.6	0.000606918
99.7	0.000636501
99.8	0.000665573
99.9	0.000698705
100	0.000730979
100.1	0.0007632
100.2	0.000795443
100.3	0.000826401
100.4	0.000862359
100.5	0.000901157
100.6	0.000941276
100.7	0.000980374
100.8	0.0010127
100.9	0.00104526
101	0.00107516
101.1	0.00110407
101.2	0.00113353
101.3	0.0011669
101.4	0.00120517
101.5	0.00124478
101.6	0.00128327
101.7	0.00132049
101.8	0.00135682
101.9	0.001399
102	0.00144352
102.1	0.00148337
102.2	0.00151608
102.3	0.00154374
102.4	0.00156731
102.5	0.00159052
102.6	0.00161737
102.7	0.0016423
102.8	0.00167061
102.9	0.00169733
103	0.00172124
103.1	0.0017477
103.2	0.00177548
103.3	0.00180078
103.4	0.0018237
103.5	0.0018488
103.6	0.00187479
103.7	0.0019021
103.8	0.00192578
103.9	0.00194856
104	0.00196873
104.1	0.00198604
104.2	0.00200108
104.3	0.00201348
104.4	0.0020224
104.5	0.00203137
104.6	0.00204028
104.7	0.00205102
104.8	0.00206217
104.9	0.00207252
105	0.00208044
105.1	0.00208879
105.2	0.00209512
105.3	0.00210392
105.4	0.00211207
105.5	0.00211729
105.6	0.00211876
105.7	0.00212598
105.8	0.00213673
105.9	0.0021506
106	0.00216423
106.1	0.00217625
106.2	0.0021873
106.3	0.00219313
106.4	0.00219555
106.5	0.0021929
106.6	0.00218815
106.7	0.00218425
106.8	0.00217874
106.9	0.00217267
107	0.00216186
107.1	0.00214783
107.2	0.00213124
107.3	0.00211802
107.4	0.00210433
107.5	0.0020918
107.6	0.00207992
107.7	0.00207448
107.8	0.00207175
107.9	0.00206704
108	0.00205943
108.1	0.00204485
108.2	0.00203261
108.3	0.00202376
108.4	0.00202023
108.5	0.00201883
108.6	0.00201798
108.7	0.00201611
108.8	0.00201145
108.9	0.00200003
109	0.00198632
109.1	0.00196961
109.2	0.00195235
109.3	0.00193819
109.4	0.00192521
109.5	0.00191056
109.6	0.00188966
109.7	0.00187143
109.8	0.00185533
109.9	0.00184159
110	0.00182526
110.1	0.00180458
110.2	0.00178304
110.3	0.00175819
110.4	0.00173618
110.5	0.00171926
110.6	0.001706
110.7	0.00169382
110.8	0.00168099
110.9	0.00166838
111	0.00166082
111.1	0.0016564
111.2	0.00165386
111.3	0.00165409
111.4	0.00166082
111.5	0.00166632
111.6	0.00167077
111.7	0.00167169
111.8	0.00167788
111.9	0.0016892
112	0.00169889
112.1	0.00171277
112.2	0.0017231
112.3	0.00173018
112.4	0.00173245
112.5	0.00173145
112.6	0.00172511
112.7	0.00171692
112.8	0.00170078
112.9	0.00168106
113	0.00166501
113.1	0.00165365
113.2	0.00164421
113.3	0.00163172
113.4	0.00161826
113.5	0.00160417
113.6	0.00159147
113.7	0.00157413
113.8	0.00155186
113.9	0.0015319
114	0.00151756
114.1	0.00150715
114.2	0.00149403
114.3	0.00147823
114.4	0.00146295
114.5	0.0014491
114.6	0.00143643
114.7	0.00142158
114.8	0.00140253
114.9	0.00138482
115	0.00137322
115.1	0.00136837
115.2	0.00136471
115.3	0.00136595
115.4	0.00136854
115.5	0.00137235
115.6	0.00137817
115.7	0.00138748
115.8	0.00139969
115.9	0.00140939
116	0.00142198
116.1	0.00143793
116.2	0.00145487
116.3	0.00146994
116.4	0.00148196
116.5	0.00149017
116.6	0.00149754
116.7	0.00150315
116.8	0.00150782
116.9	0.00151158
117	0.00151237
117.1	0.00151372
117.2	0.00151634
117.3	0.00152279
117.4	0.00153128
117.5	0.00153902
117.6	0.00154638
117.7	0.00155439
117.8	0.00155975
117.9	0.00156608
118	0.00157884
118.1	0.00159337
118.2	0.00160804
118.3	0.00162115
118.4	0.00163084
118.5	0.00163929
118.6	0.00164775
118.7	0.00165915
118.8	0.00167625
118.9	0.00169441
119	0.00171178
119.1	0.00172869
119.2	0.00174687
119.3	0.00176277
119.4	0.00177606
119.5	0.00178523
119.6	0.00179413
119.7	0.00180025
119.8	0.00180334
119.9	0.00180387
120	0.00180231
120.1	0.00180249
120.2	0.0017996
120.3	0.00179371
120.4	0.0017851
120.5	0.00177722
120.6	0.00177401
120.7	0.00177519
120.8	0.00177598
120.9	0.00177664
121	0.00177786
121.1	0.00178166
121.2	0.00178934
121.3	0.00179682
121.4	0.00180402
121.5	0.00180881
121.6	0.00181293
121.7	0.00181846
121.8	0.00182546
121.9	0.00183328
122	0.00184126
122.1	0.00184366
122.2	0.00184414
122.3	0.00184603
122.4	0.00184948
122.5	0.0018591
122.6	0.0018741
122.7	0.00189241
122.8	0.00191167
122.9	0.00193134
123	0.00194577
123.1	0.00195907
123.2	0.00196866
123.3	0.00197595
123.4	0.00198134
123.5	0.00198813
123.6	0.00199235
123.7	0.00199366
123.8	0.00199845
123.9	0.00200992
124	0.00202054
124.1	0.00203413
124.2	0.0020465
124.3	0.00206006
124.4	0.00206979
124.5	0.00207656
124.6	0.00208325
124.7	0.00209566
124.8	0.00211099
124.9	0.00212713
125	0.00214673
125.1	0.00216294
125.2	0.00217903
125.3	0.00219312
125.4	0.00220946
