LagTime	Correlation

0	0.667465
0.1	0.662446
0.2	0.654967
0.3	0.646946
0.4	0.638866
0.5	0.630844
0.6	0.622909
0.7	0.615066
0.8	0.607316
0.9	0.599657
1	0.592092
1.1	0.584618
1.2	0.577239
1.3	0.569954
1.4	0.562764
1.5	0.555666
1.6	0.548656
1.7	0.541734
1.8	0.534897
1.9	0.528144
2	0.521468
2.1	0.514877
2.2	0.50837
2.3	0.501948
2.4	0.495611
2.5	0.489356
2.6	0.483177
2.7	0.477072
2.8	0.471042
2.9	0.46509
3	0.459211
3.1	0.453403
3.2	0.447668
3.3	0.442002
3.4	0.436408
3.5	0.43089
3.6	0.425444
3.7	0.420068
3.8	0.41476
3.9	0.409523
4	0.404353
4.1	0.399246
4.2	0.394195
4.3	0.389205
4.4	0.384279
4.5	0.379417
4.6	0.374619
4.7	0.369888
4.8	0.365216
4.9	0.360609
5	0.356058
5.1	0.351562
5.2	0.347124
5.3	0.342745
5.4	0.338424
5.5	0.334155
5.6	0.329943
5.7	0.325785
5.8	0.32168
5.9	0.317625
6	0.313622
6.1	0.309673
6.2	0.305776
6.3	0.30193
6.4	0.298131
6.5	0.294378
6.6	0.290667
6.7	0.286998
6.8	0.283375
6.9	0.279803
7	0.276279
7.1	0.272798
7.2	0.269362
7.3	0.265971
7.4	0.262627
7.5	0.259326
7.6	0.256066
7.7	0.252843
7.8	0.249659
7.9	0.24651
8	0.243398
8.1	0.240323
8.2	0.237279
8.3	0.234274
8.4	0.231304
8.5	0.228372
8.6	0.22548
8.7	0.22263
8.8	0.219817
8.9	0.217038
9	0.214288
9.1	0.211573
9.2	0.208894
9.3	0.206253
9.4	0.20365
9.5	0.201082
9.6	0.198548
9.7	0.196045
9.8	0.193576
9.9	0.191134
10	0.188718
10.1	0.186331
10.2	0.183976
10.3	0.181647
10.4	0.179342
10.5	0.177068
10.6	0.174826
10.7	0.172616
10.8	0.170435
10.9	0.168281
11	0.166156
11.1	0.164053
11.2	0.161974
11.3	0.159917
11.4	0.157888
11.5	0.155887
11.6	0.153916
11.7	0.151974
11.8	0.150054
11.9	0.148155
12	0.146276
12.1	0.144419
12.2	0.142585
12.3	0.140777
12.4	0.138991
12.5	0.137225
12.6	0.135479
12.7	0.133749
12.8	0.132037
12.9	0.130353
13	0.128701
13.1	0.12708
13.2	0.125485
13.3	0.123905
13.4	0.122345
13.5	0.120802
13.6	0.119281
13.7	0.117777
13.8	0.11629
13.9	0.114818
14	0.113363
14.1	0.111929
14.2	0.110514
14.3	0.109122
14.4	0.107746
14.5	0.106388
14.6	0.105051
14.7	0.103734
14.8	0.102438
14.9	0.101158
15	0.0998902
15.1	0.0986414
15.2	0.0974083
15.3	0.0961899
15.4	0.0949865
15.5	0.0937956
15.6	0.0926191
15.7	0.0914582
15.8	0.0903099
15.9	0.0891754
16	0.0880576
16.1	0.0869502
16.2	0.0858592
16.3	0.084783
16.4	0.0837228
16.5	0.0826749
16.6	0.0816384
16.7	0.0806092
16.8	0.079586
16.9	0.0785695
17	0.0775592
17.1	0.0765563
17.2	0.0755664
17.3	0.0745955
17.4	0.0736423
17.5	0.072703
17.6	0.0717763
17.7	0.0708607
17.8	0.0699593
17.9	0.0690696
18	0.0681915
18.1	0.0673238
18.2	0.0664648
18.3	0.0656154
18.4	0.0647791
18.5	0.0639595
18.6	0.0631512
18.7	0.0623569
18.8	0.0615771
18.9	0.0608066
19	0.0600415
19.1	0.059284
19.2	0.0585333
19.3	0.057792
19.4	0.0570597
19.5	0.0563405
19.6	0.0556272
19.7	0.0549197
19.8	0.0542157
19.9	0.0535174
20	0.0528225
20.1	0.0521291
20.2	0.0514425
20.3	0.0507629
20.4	0.0500864
20.5	0.0494134
20.6	0.0487462
20.7	0.0480861
20.8	0.047433
20.9	0.046787
21	0.046152
21.1	0.0455277
21.2	0.0449151
21.3	0.044311
21.4	0.0437131
21.5	0.0431222
21.6	0.0425405
21.7	0.0419647
21.8	0.0413908
21.9	0.0408188
22	0.040254
22.1	0.0396976
22.2	0.0391469
22.3	0.0385997
22.4	0.0380612
22.5	0.0375305
22.6	0.0370132
22.7	0.0365041
22.8	0.0359973
22.9	0.0354935
23	0.034996
23.1	0.0345041
23.2	0.0340226
23.3	0.0335451
23.4	0.0330766
23.5	0.0326154
23.6	0.0321643
23.7	0.0317228
23.8	0.0312856
23.9	0.030851
24	0.0304248
24.1	0.0300046
24.2	0.0295897
24.3	0.0291788
24.4	0.028778
24.5	0.028387
24.6	0.0280041
24.7	0.027626
24.8	0.0272552
24.9	0.0268867
25	0.0265263
25.1	0.0261754
25.2	0.0258364
25.3	0.0255044
25.4	0.0251809
25.5	0.024867
25.6	0.024556
25.7	0.024244
25.8	0.0239325
25.9	0.0236238
26	0.0233177
26.1	0.0230136
26.2	0.0227088
26.3	0.0224072
26.4	0.0221086
26.5	0.0218153
26.6	0.0215271
26.7	0.0212477
26.8	0.0209698
26.9	0.0206927
27	0.0204122
27.1	0.0201296
27.2	0.0198516
27.3	0.0195772
27.4	0.0193077
27.5	0.0190424
27.6	0.0187845
27.7	0.0185286
27.8	0.0182756
27.9	0.0180274
28	0.0177851
28.1	0.0175435
28.2	0.0172988
28.3	0.0170585
28.4	0.0168192
28.5	0.0165824
28.6	0.0163512
28.7	0.0161221
28.8	0.0158976
28.9	0.0156763
29	0.0154595
29.1	0.0152435
29.2	0.0150229
29.3	0.0147958
29.4	0.01457
29.5	0.0143463
29.6	0.0141237
29.7	0.0139054
29.8	0.0136898
29.9	0.0134766
30	0.0132647
30.1	0.0130535
30.2	0.0128458
30.3	0.0126423
30.4	0.0124462
30.5	0.0122591
30.6	0.0120758
30.7	0.011894
30.8	0.0117161
30.9	0.01154
31	0.0113652
31.1	0.0111968
31.2	0.0110327
31.3	0.010872
31.4	0.0107147
31.5	0.0105593
31.6	0.0104064
31.7	0.0102559
31.8	0.0101047
31.9	0.00995378
32	0.00980227
32.1	0.00965725
32.2	0.00951598
32.3	0.0093739
32.4	0.0092322
32.5	0.00909191
32.6	0.00895268
32.7	0.00881988
32.8	0.00869266
32.9	0.00856704
33	0.00844055
33.1	0.00831851
33.2	0.00819957
33.3	0.00808413
33.4	0.00797223
33.5	0.00786302
33.6	0.00775927
33.7	0.0076637
33.8	0.00756753
33.9	0.0074685
34	0.00736624
34.1	0.00726351
34.2	0.00715486
34.3	0.0070462
34.4	0.00693734
34.5	0.00683003
34.6	0.00672729
34.7	0.00662739
34.8	0.00653265
34.9	0.00644274
35	0.00635235
35.1	0.00626221
35.2	0.00617164
35.3	0.00608348
35.4	0.0059969
35.5	0.00591479
35.6	0.00583732
35.7	0.00575814
35.8	0.00567581
35.9	0.00559107
36	0.00550592
36.1	0.00542207
36.2	0.0053392
36.3	0.00525578
36.4	0.00517345
36.5	0.00509174
36.6	0.00500373
36.7	0.00491283
36.8	0.00482014
36.9	0.0047292
37	0.00463522
37.1	0.00453639
37.2	0.00443871
37.3	0.00433766
37.4	0.00423901
37.5	0.00413821
37.6	0.00403796
37.7	0.00393924
37.8	0.00384067
37.9	0.00374269
38	0.00364339
38.1	0.00354382
38.2	0.00345027
38.3	0.00336148
38.4	0.00327333
38.5	0.00318647
38.6	0.00309639
38.7	0.00299861
38.8	0.00289921
38.9	0.0028001
39	0.00269627
39.1	0.00259129
39.2	0.00248941
39.3	0.00239103
39.4	0.00229619
39.5	0.00220468
39.6	0.00211691
39.7	0.00203344
39.8	0.00195778
39.9	0.00189516
40	0.00184201
40.1	0.0017964
40.2	0.00175065
40.3	0.00170271
40.4	0.00165546
40.5	0.0016131
40.6	0.00157223
40.7	0.00153081
40.8	0.00149321
40.9	0.00145225
41	0.00141299
41.1	0.00137642
41.2	0.00134238
41.3	0.00130988
41.4	0.00127876
41.5	0.00124866
41.6	0.00121877
41.7	0.0011882
41.8	0.00115858
41.9	0.00113096
42	0.00110404
42.1	0.00107607
42.2	0.00104901
42.3	0.00102224
42.4	0.000994709
42.5	0.000970633
42.6	0.000949643
42.7	0.000930815
42.8	0.000914008
42.9	0.000896129
43	0.00087409
43.1	0.000847505
43.2	0.000819599
43.3	0.000787466
43.4	0.000757363
43.5	0.000725655
43.6	0.000697714
43.7	0.000677051
43.8	0.000659923
43.9	0.000642116
44	0.000618889
44.1	0.000597711
44.2	0.000574037
44.3	0.000547442
44.4	0.000519662
44.5	0.000488357
44.6	0.000451431
44.7	0.000417286
44.8	0.0003855
44.9	0.000360204
45	0.000336453
45.1	0.000316943
45.2	0.000296789
45.3	0.000280352
45.4	0.000269436
45.5	0.000260611
45.6	0.000249646
45.7	0.000233104
45.8	0.000216448
45.9	0.00019995
46	0.000182479
46.1	0.000164227
46.2	0.000144721
46.3	0.000126028
46.4	0.000104124
46.5	7.74812e-05
46.6	4.42932e-05
46.7	1.09718e-05
46.8	-1.87397e-05
46.9	-4.72517e-05
47	-7.44657e-05
47.1	-9.88409e-05
47.2	-0.000127447
47.3	-0.000158804
47.4	-0.000189797
47.5	-0.000217942
47.6	-0.000245831
47.7	-0.000275257
47.8	-0.000310408
47.9	-0.000346624
48	-0.000382214
48.1	-0.000418942
48.2	-0.000458818
48.3	-0.000496411
48.4	-0.000533682
48.5	-0.000573087
48.6	-0.000616813
48.7	-0.00066426
48.8	-0.000710899
48.9	-0.000757661
49	-0.000800143
49.1	-0.000839885
49.2	-0.000877103
49.3	-0.00091369
49.4	-0.000948935
49.5	-0.000979912
49.6	-0.00101362
49.7	-0.00105511
49.8	-0.00109582
49.9	-0.00113515
50	-0.00116928
50.1	-0.00120523
50.2	-0.00125011
50.3	-0.00130397
50.4	-0.00136487
50.5	-0.00142547
50.6	-0.00149199
50.7	-0.00156461
50.8	-0.0016395
50.9	-0.00171176
51	-0.00178181
51.1	-0.00185451
51.2	-0.00193162
51.3	-0.00201448
51.4	-0.0020954
51.5	-0.00217544
51.6	-0.00225355
51.7	-0.00233018
51.8	-0.00240135
51.9	-0.00246989
52	-0.00253882
52.1	-0.00260446
52.2	-0.00266866
52.3	-0.00273384
52.4	-0.00279419
52.5	-0.00284824
52.6	-0.00289632
52.7	-0.00294205
52.8	-0.00298797
52.9	-0.00303352
53	-0.00307988
53.1	-0.00312856
53.2	-0.00317678
53.3	-0.00322651
53.4	-0.00327687
53.5	-0.00332616
53.6	-0.00337706
53.7	-0.00342995
53.8	-0.00348834
53.9	-0.00354493
54	-0.00360008
54.1	-0.00365477
54.2	-0.0037052
54.3	-0.00374985
54.4	-0.00379404
54.5	-0.00383566
54.6	-0.00387576
54.7	-0.00391185
54.8	-0.0039429
54.9	-0.00396893
55	-0.00399153
55.1	-0.00401212
55.2	-0.00402779
55.3	-0.00404461
55.4	-0.00405995
55.5	-0.0040729
55.6	-0.00409077
55.7	-0.00411513
55.8	-0.00414611
55.9	-0.00417584
56	-0.00420397
56.1	-0.0042394
56.2	-0.00427552
56.3	-0.00431289
56.4	-0.00434711
56.5	-0.00437998
56.6	-0.00440992
56.7	-0.0044402
56.8	-0.00447318
56.9	-0.00450473
57	-0.00453452
57.1	-0.00456671
57.2	-0.00459826
57.3	-0.0046279
57.4	-0.004659
57.5	-0.00469081
57.6	-0.00472142
57.7	-0.00474819
57.8	-0.00477351
57.9	-0.00479504
58	-0.00481712
58.1	-0.00483645
58.2	-0.00485435
58.3	-0.00487061
58.4	-0.00488619
58.5	-0.00490463
58.6	-0.00492447
58.7	-0.00494683
58.8	-0.00496288
58.9	-0.00497628
59	-0.00498513
59.1	-0.00499058
59.2	-0.00499347
59.3	-0.00499943
59.4	-0.00500872
59.5	-0.00502333
59.6	-0.00504288
59.7	-0.00506149
59.8	-0.00507837
59.9	-0.00509205
60	-0.00510442
60.1	-0.00511433
60.2	-0.00512317
60.3	-0.00513396
60.4	-0.00514451
60.5	-0.0051505
60.6	-0.00515627
60.7	-0.0051666
60.8	-0.00517581
60.9	-0.00518294
61	-0.00518951
61.1	-0.00519444
61.2	-0.00520202
61.3	-0.00521074
61.4	-0.00522279
61.5	-0.00523692
61.6	-0.00525242
61.7	-0.00527072
61.8	-0.00528836
61.9	-0.00530673
62	-0.00531996
62.1	-0.00533118
62.2	-0.00533663
62.3	-0.00534001
62.4	-0.00533839
62.5	-0.00533969
62.6	-0.00534256
62.7	-0.00534949
62.8	-0.00535318
62.9	-0.00535259
63	-0.00535942
63.1	-0.00537285
63.2	-0.00538951
63.3	-0.00541093
63.4	-0.00543449
63.5	-0.00545714
63.6	-0.00547694
63.7	-0.00549206
63.8	-0.00550268
63.9	-0.00551145
64	-0.00552005
64.1	-0.00552209
64.2	-0.00551613
64.3	-0.00550321
64.4	-0.00548557
64.5	-0.00546593
64.6	-0.0054441
64.7	-0.00542033
64.8	-0.00539778
64.9	-0.00536984
65	-0.00533468
65.1	-0.005299
65.2	-0.00526518
65.3	-0.00523035
65.4	-0.00519337
65.5	-0.00515785
65.6	-0.00512274
65.7	-0.0050861
65.8	-0.00504748
65.9	-0.00501073
66	-0.00497079
66.1	-0.00493102
66.2	-0.00489308
66.3	-0.00485477
66.4	-0.00481686
66.5	-0.00478177
66.6	-0.00474866
66.7	-0.00471667
66.8	-0.00468657
66.9	-0.00465562
67	-0.00461986
67.1	-0.00457729
67.2	-0.00453086
67.3	-0.00448206
67.4	-0.0044385
67.5	-0.00439754
67.6	-0.00435475
67.7	-0.0043108
67.8	-0.00426468
67.9	-0.00422656
68	-0.00419842
68.1	-0.00417292
68.2	-0.00414761
68.3	-0.00412221
68.4	-0.00409323
68.5	-0.00406352
68.6	-0.00403383
68.7	-0.00400774
68.8	-0.00398809
68.9	-0.00397187
69	-0.00395633
69.1	-0.00394836
69.2	-0.00394339
69.3	-0.00393753
69.4	-0.00392986
69.5	-0.00392628
69.6	-0.003921
69.7	-0.00391408
69.8	-0.00390581
69.9	-0.0038971
70	-0.00388686
70.1	-0.00387972
70.2	-0.00387432
70.3	-0.00387202
70.4	-0.00386384
70.5	-0.00385386
70.6	-0.00384509
70.7	-0.00383567
70.8	-0.00382338
70.9	-0.00380612
71	-0.00378278
71.1	-0.00374865
71.2	-0.00370742
71.3	-0.00366363
71.4	-0.00361548
71.5	-0.0035645
71.6	-0.00351297
71.7	-0.00346014
71.8	-0.00340996
71.9	-0.00336543
72	-0.00332181
72.1	-0.00327442
72.2	-0.00322438
72.3	-0.00317716
72.4	-0.00313147
72.5	-0.00308757
72.6	-0.00304582
72.7	-0.00300496
72.8	-0.00296317
72.9	-0.00292094
73	-0.00287998
73.1	-0.00283508
73.2	-0.00279549
73.3	-0.00275932
73.4	-0.00272381
73.5	-0.00268861
73.6	-0.00265117
73.7	-0.00260671
73.8	-0.00256291
73.9	-0.00251873
74	-0.00246675
74.1	-0.00241382
74.2	-0.00236456
74.3	-0.00232023
74.4	-0.00227758
74.5	-0.0022402
74.6	-0.00220889
74.7	-0.00218085
74.8	-0.00215658
74.9	-0.00213582
75	-0.00211576
75.1	-0.00209303
75.2	-0.00206717
75.3	-0.00204388
75.4	-0.00202793
75.5	-0.00202124
75.6	-0.00202412
75.7	-0.00202908
75.8	-0.0020316
75.9	-0.00202966
76	-0.00202786
76.1	-0.00202697
76.2	-0.00202378
76.3	-0.00201339
76.4	-0.00200385
76.5	-0.00199385
76.6	-0.00198238
76.7	-0.00197131
76.8	-0.00195824
76.9	-0.00194072
77	-0.00192025
77.1	-0.00189926
77.2	-0.00187815
77.3	-0.00185604
77.4	-0.00183367
77.5	-0.00180535
77.6	-0.00177907
77.7	-0.00175538
77.8	-0.00173155
77.9	-0.00170775
78	-0.00168116
78.1	-0.0016523
78.2	-0.00162652
78.3	-0.00160435
78.4	-0.00158347
78.5	-0.00156562
78.6	-0.00154978
78.7	-0.00153357
78.8	-0.00152234
78.9	-0.00151283
79	-0.00150278
79.1	-0.0014917
79.2	-0.00147125
79.3	-0.00144479
79.4	-0.00142156
79.5	-0.00140042
79.6	-0.00138185
79.7	-0.001362
79.8	-0.00134489
79.9	-0.00132951
80	-0.00131301
80.1	-0.00129048
80.2	-0.00126619
80.3	-0.0012415
80.4	-0.0012128
80.5	-0.00118313
80.6	-0.00115584
80.7	-0.00113068
80.8	-0.00110606
80.9	-0.00108216
81	-0.00106066
81.1	-0.00104175
81.2	-0.00102167
81.3	-0.00100054
81.4	-0.000978863
81.5	-0.000957925
81.6	-0.000939021
81.7	-0.000925089
81.8	-0.000918676
81.9	-0.000910807
82	-0.000899703
82.1	-0.000886758
82.2	-0.000872671
82.3	-0.000856605
82.4	-0.000836733
82.5	-0.000814721
82.6	-0.000787747
82.7	-0.000759187
82.8	-0.000729825
82.9	-0.000698818
83	-0.000673635
83.1	-0.000653338
83.2	-0.000636477
83.3	-0.000618361
83.4	-0.000602207
83.5	-0.000587456
83.6	-0.000578349
83.7	-0.000573099
83.8	-0.000564507
83.9	-0.000557062
84	-0.000550962
84.1	-0.000541521
84.2	-0.000530616
84.3	-0.00052054
84.4	-0.000514397
84.5	-0.000509707
84.6	-0.000504247
84.7	-0.000500288
84.8	-0.000496459
84.9	-0.000491096
85	-0.000483015
85.1	-0.000466973
85.2	-0.000446842
85.3	-0.000426054
85.4	-0.000405546
85.5	-0.000387825
85.6	-0.000369772
85.7	-0.000353286
85.8	-0.00033255
85.9	-0.00030937
86	-0.000285543
86.1	-0.00026049
86.2	-0.000234789
86.3	-0.00021099
86.4	-0.000186837
86.5	-0.000157431
86.6	-0.000126562
86.7	-9.37783e-05
86.8	-6.5084e-05
86.9	-3.91359e-05
87	-1.11662e-05
87.1	2.31538e-05
87.2	5.9081e-05
87.3	9.80175e-05
87.4	0.000136726
87.5	0.000177011
87.6	0.000218332
87.7	0.000262884
87.8	0.000313223
87.9	0.000366769
88	0.000419012
88.1	0.000478698
88.2	0.000544363
88.3	0.000617279
88.4	0.000687806
88.5	0.000746038
88.6	0.000801009
88.7	0.000853174
88.8	0.000900166
88.9	0.000946068
89	0.000988632
89.1	0.0010249
89.2	0.00106083
89.3	0.00109759
89.4	0.00113508
89.5	0.00116791
89.6	0.00119677
89.7	0.00122431
89.8	0.00125031
89.9	0.00127645
90	0.00129714
90.1	0.00131232
90.2	0.00132473
90.3	0.00133303
90.4	0.00134207
90.5	0.00135027
90.6	0.00136023
90.7	0.00136893
90.8	0.00137891
90.9	0.00138934
91	0.00140178
91.1	0.00141734
91.2	0.00143751
91.3	0.00145832
91.4	0.00147936
91.5	0.00150413
91.6	0.00152969
91.7	0.00155928
91.8	0.00159111
91.9	0.00162568
92	0.00166393
92.1	0.00169962
92.2	0.00173447
92.3	0.00177017
92.4	0.00180211
92.5	0.00182864
92.6	0.0018514
92.7	0.00187533
92.8	0.001898
92.9	0.00192432
93	0.00195606
93.1	0.00199288
93.2	0.00203533
93.3	0.00207536
93.4	0.00211155
93.5	0.00215028
93.6	0.00218953
93.7	0.00223157
93.8	0.00227583
93.9	0.00232079
94	0.00236607
94.1	0.00241062
94.2	0.00246089
94.3	0.00251357
94.4	0.00256819
94.5	0.00262424
94.6	0.00268096
94.7	0.00273524
94.8	0.0027889
94.9	0.00284148
95	0.00289197
95.1	0.00294276
95.2	0.00298897
95.3	0.00303378
95.4	0.00307925
95.5	0.00312387
95.6	0.00316202
95.7	0.0031999
95.8	0.00323514
95.9	0.0032672
96	0.00329817
96.1	0.00332622
96.2	0.00335574
96.3	0.00338822
96.4	0.00342759
96.5	0.00346917
96.6	0.00350832
96.7	0.00353919
96.8	0.00356915
96.9	0.0036025
97	0.00363918
97.1	0.00367844
97.2	0.00371667
97.3	0.0037528
97.4	0.00378049
97.5	0.00380414
97.6	0.00382717
97.7	0.00384931
97.8	0.00387163
97.9	0.00388931
98	0.00390288
98.1	0.0039132
98.2	0.0039183
98.3	0.00392389
98.4	0.00392616
98.5	0.00392111
98.6	0.00391683
98.7	0.00391289
98.8	0.00391315
98.9	0.00392158
99	0.00393163
99.1	0.00393797
99.2	0.00393863
99.3	0.00393456
99.4	0.00392886
99.5	0.0039219
99.6	0.00391244
99.7	0.00389794
99.8	0.00388423
99.9	0.00387164
100	0.00386025
100.1	0.00385019
100.2	0.0038457
100.3	0.003843
100.4	0.00384074
100.5	0.00384158
100.6	0.00384078
100.7	0.0038418
100.8	0.00384272
100.9	0.00384546
101	0.00384918
101.1	0.00385495
101.2	0.00386366
101.3	0.00387553
101.4	0.00388605
101.5	0.00389635
101.6	0.00389945
101.7	0.00389149
101.8	0.00387954
101.9	0.00386653
102	0.003852
102.1	0.00383751
102.2	0.00382575
102.3	0.00382354
102.4	0.00382478
102.5	0.00382333
102.6	0.00381644
102.7	0.00380617
102.8	0.00379541
102.9	0.00378525
103	0.00377453
103.1	0.00376336
103.2	0.00375371
103.3	0.00374755
103.4	0.00374196
103.5	0.00373882
103.6	0.00373633
103.7	0.00373272
103.8	0.00372921
103.9	0.00372132
104	0.00371332
104.1	0.00370879
104.2	0.00370659
104.3	0.0037087
104.4	0.00371533
104.5	0.003722
104.6	0.00372462
104.7	0.00372411
104.8	0.00372246
104.9	0.00372345
105	0.00372643
105.1	0.0037264
105.2	0.00372041
105.3	0.00371501
105.4	0.0037058
105.5	0.00369588
105.6	0.00368133
105.7	0.00366366
105.8	0.00364991
105.9	0.00363457
106	0.00361597
106.1	0.00359597
106.2	0.00357636
106.3	0.00356035
106.4	0.00355144
106.5	0.00354604
106.6	0.00354609
106.7	0.00354707
106.8	0.00354905
106.9	0.00355379
107	0.00355904
107.1	0.00357018
107.2	0.00358368
107.3	0.0035949
107.4	0.00360204
107.5	0.00360715
107.6	0.00361037
107.7	0.00361142
107.8	0.00361058
107.9	0.00360649
108	0.00360783
108.1	0.00361078
108.2	0.00361371
108.3	0.00361526
108.4	0.00361683
108.5	0.00361559
108.6	0.00360874
108.7	0.00359641
108.8	0.00357903
108.9	0.00356373
109	0.00354902
109.1	0.00353354
109.2	0.00351881
109.3	0.0035039
109.4	0.00348979
109.5	0.0034775
109.6	0.00346405
109.7	0.00344835
109.8	0.00342754
109.9	0.0033994
110	0.00337228
110.1	0.00334452
110.2	0.00331533
110.3	0.00328417
110.4	0.00324983
110.5	0.00320423
110.6	0.00315213
110.7	0.00309666
110.8	0.00303633
110.9	0.0029719
111	0.00290565
111.1	0.002837
111.2	0.00276963
111.3	0.00270437
111.4	0.00263988
111.5	0.00257284
111.6	0.00250566
111.7	0.00243779
111.8	0.00237085
111.9	0.00230257
112	0.00223028
112.1	0.0021587
112.2	0.00208548
112.3	0.0020153
112.4	0.00194979
112.5	0.00188327
112.6	0.00181946
112.7	0.00176095
112.8	0.0017012
112.9	0.00163613
113	0.00157277
113.1	0.00151462
113.2	0.00146209
113.3	0.00141877
113.4	0.00137876
113.5	0.00134127
113.6	0.0013058
113.7	0.00127463
113.8	0.00124563
113.9	0.0012206
114	0.00119686
114.1	0.00117273
114.2	0.00114761
114.3	0.00112396
114.4	0.00110282
114.5	0.00108433
114.6	0.0010612
114.7	0.00103836
114.8	0.00101705
114.9	0.000995771
115	0.000972826
115.1	0.000949317
115.2	0.000925082
115.3	0.000902034
115.4	0.000884585
115.5	0.000865013
115.6	0.000844303
115.7	0.000822677
115.8	0.000798356
115.9	0.000773086
116	0.000747207
116.1	0.000721138
116.2	0.000694871
116.3	0.000669381
116.4	0.00064272
116.5	0.000612415
116.6	0.000579488
116.7	0.000549116
116.8	0.00051929
116.9	0.000490074
117	0.000462099
117.1	0.000434188
117.2	0.000404879
117.3	0.00037759
117.4	0.000353812
117.5	0.000334718
117.6	0.000319267
117.7	0.000307066
117.8	0.000295185
117.9	0.000286343
118	0.000282049
118.1	0.000276392
118.2	0.000271009
118.3	0.000261636
118.4	0.000248174
118.5	0.000234577
118.6	0.000225085
118.7	0.00022251
118.8	0.000220871
118.9	0.000223465
119	0.000225045
119.1	0.000219497
119.2	0.000214628
119.3	0.000208753
119.4	0.000204105
119.5	0.000200875
119.6	0.000203916
119.7	0.000212438
119.8	0.000220914
119.9	0.000226534
120	0.000233078
120.1	0.000239839
120.2	0.000247415
120.3	0.000249732
120.4	0.000246202
120.5	0.000241611
120.6	0.00023946
120.7	0.00024004
120.8	0.000242432
120.9	0.000250384
121	0.000264443
121.1	0.000279209
121.2	0.000289778
121.3	0.000294968
121.4	0.000296397
121.5	0.00030067
121.6	0.000306422
121.7	0.00031488
121.8	0.000323792
121.9	0.000335921
122	0.000345376
122.1	0.000353437
122.2	0.000363511
122.3	0.000370097
122.4	0.000375603
122.5	0.000384285
122.6	0.000399881
122.7	0.000422225
122.8	0.00044435
122.9	0.000470314
123	0.000493481
123.1	0.000511851
123.2	0.000530377
123.3	0.000551768
123.4	0.000574759
123.5	0.00059869
123.6	0.000619047
123.7	0.0006338
123.8	0.00064564
123.9	0.000655589
124	0.000665127
124.1	0.000677383
124.2	0.000690147
124.3	0.000704901
124.4	0.000711794
124.5	0.000713756
124.6	0.000714883
124.7	0.000714916
124.8	0.000716161
124.9	0.000718161
125	0.000718391
125.1	0.000713966
