LagTime	Correlation

0	0.670409
0.1	0.665392
0.2	0.657917
0.3	0.649899
0.4	0.641823
0.5	0.633811
0.6	0.625893
0.7	0.618075
0.8	0.610354
0.9	0.602729
1	0.5952
1.1	0.587764
1.2	0.580423
1.3	0.573172
1.4	0.566009
1.5	0.558932
1.6	0.551946
1.7	0.545049
1.8	0.538242
1.9	0.531524
2	0.524895
2.1	0.518352
2.2	0.511885
2.3	0.505498
2.4	0.499185
2.5	0.492945
2.6	0.486777
2.7	0.480687
2.8	0.474674
2.9	0.468744
3	0.462893
3.1	0.45712
3.2	0.451419
3.3	0.445788
3.4	0.440224
3.5	0.434727
3.6	0.429296
3.7	0.423929
3.8	0.418626
3.9	0.413391
4	0.408222
4.1	0.403116
4.2	0.398072
4.3	0.393087
4.4	0.388159
4.5	0.383289
4.6	0.37848
4.7	0.373732
4.8	0.369044
4.9	0.364417
5	0.359849
5.1	0.355335
5.2	0.350876
5.3	0.346471
5.4	0.34212
5.5	0.337822
5.6	0.333576
5.7	0.329387
5.8	0.325252
5.9	0.321167
6	0.317131
6.1	0.313142
6.2	0.309202
6.3	0.305315
6.4	0.301475
6.5	0.297684
6.6	0.293948
6.7	0.290263
6.8	0.286631
6.9	0.283047
7	0.279508
7.1	0.276011
7.2	0.272556
7.3	0.269144
7.4	0.26577
7.5	0.262436
7.6	0.259139
7.7	0.255877
7.8	0.252653
7.9	0.249469
8	0.246324
8.1	0.243218
8.2	0.24015
8.3	0.23712
8.4	0.23413
8.5	0.231177
8.6	0.228253
8.7	0.225357
8.8	0.222495
8.9	0.219664
9	0.216867
9.1	0.214107
9.2	0.211381
9.3	0.208694
9.4	0.206037
9.5	0.203407
9.6	0.200807
9.7	0.198246
9.8	0.195719
9.9	0.193223
10	0.190762
10.1	0.188333
10.2	0.185931
10.3	0.183565
10.4	0.181233
10.5	0.178929
10.6	0.176654
10.7	0.174405
10.8	0.172184
10.9	0.169995
11	0.167838
11.1	0.16571
11.2	0.163606
11.3	0.161529
11.4	0.15948
11.5	0.157455
11.6	0.155452
11.7	0.153476
11.8	0.151526
11.9	0.149604
12	0.147705
12.1	0.145826
12.2	0.143972
12.3	0.142134
12.4	0.140316
12.5	0.138525
12.6	0.136756
12.7	0.135012
12.8	0.133287
12.9	0.131586
13	0.12991
13.1	0.128255
13.2	0.12662
13.3	0.125004
13.4	0.123413
13.5	0.121841
13.6	0.120288
13.7	0.118756
13.8	0.117248
13.9	0.115765
14	0.114304
14.1	0.112862
14.2	0.111436
14.3	0.110024
14.4	0.10863
14.5	0.107254
14.6	0.105895
14.7	0.104555
14.8	0.103234
14.9	0.10193
15	0.100641
15.1	0.0993682
15.2	0.0981124
15.3	0.0968744
15.4	0.0956546
15.5	0.0944469
15.6	0.0932519
15.7	0.0920689
15.8	0.0909033
15.9	0.0897504
16	0.0886067
16.1	0.0874763
16.2	0.0863568
16.3	0.0852466
16.4	0.0841434
16.5	0.0830517
16.6	0.0819731
16.7	0.0809057
16.8	0.0798487
16.9	0.0788036
17	0.077771
17.1	0.0767514
17.2	0.0757449
17.3	0.0747469
17.4	0.073759
17.5	0.0727827
17.6	0.0718175
17.7	0.0708621
17.8	0.0699209
17.9	0.0689973
18	0.0680885
18.1	0.0671942
18.2	0.0663149
18.3	0.0654499
18.4	0.0646016
18.5	0.0637668
18.6	0.0629462
18.7	0.0621347
18.8	0.0613302
18.9	0.0605351
19	0.0597517
19.1	0.0589776
19.2	0.0582146
19.3	0.057463
19.4	0.0567228
19.5	0.0559905
19.6	0.0552608
19.7	0.0545377
19.8	0.0538176
19.9	0.0531073
20	0.0524104
20.1	0.0517247
20.2	0.0510478
20.3	0.0503791
20.4	0.0497191
20.5	0.0490702
20.6	0.0484244
20.7	0.047779
20.8	0.047138
20.9	0.0465096
21	0.0458927
21.1	0.0452824
21.2	0.0446749
21.3	0.0440755
21.4	0.0434846
21.5	0.0428997
21.6	0.0423173
21.7	0.0417356
21.8	0.0411592
21.9	0.0405891
22	0.0400256
22.1	0.0394682
22.2	0.0389178
22.3	0.0383746
22.4	0.0378387
22.5	0.0373075
22.6	0.0367791
22.7	0.0362534
22.8	0.0357317
22.9	0.035221
23	0.0347239
23.1	0.0342394
23.2	0.0337605
23.3	0.0332941
23.4	0.0328358
23.5	0.0323829
23.6	0.0319335
23.7	0.0314882
23.8	0.0310515
23.9	0.0306232
24	0.0301954
24.1	0.0297731
24.2	0.0293588
24.3	0.0289504
24.4	0.0285505
24.5	0.0281596
24.6	0.0277767
24.7	0.0274049
24.8	0.0270376
24.9	0.0266765
25	0.0263242
25.1	0.0259771
25.2	0.0256368
25.3	0.0253037
25.4	0.024978
25.5	0.0246641
25.6	0.0243523
25.7	0.0240425
25.8	0.0237363
25.9	0.023435
26	0.0231407
26.1	0.0228503
26.2	0.022564
26.3	0.0222774
26.4	0.0219943
26.5	0.0217166
26.6	0.0214473
26.7	0.0211854
26.8	0.0209235
26.9	0.0206584
27	0.0203943
27.1	0.0201351
27.2	0.0198798
27.3	0.0196276
27.4	0.0193819
27.5	0.0191423
27.6	0.0189084
27.7	0.0186816
27.8	0.0184534
27.9	0.018223
28	0.0179878
28.1	0.0177485
28.2	0.0175091
28.3	0.0172687
28.4	0.0170269
28.5	0.0167826
28.6	0.0165378
28.7	0.0162991
28.8	0.0160634
28.9	0.0158315
29	0.0156015
29.1	0.0153731
29.2	0.0151473
29.3	0.0149293
29.4	0.014714
29.5	0.0145059
29.6	0.0143042
29.7	0.0141114
29.8	0.013919
29.9	0.013726
30	0.013532
30.1	0.0133394
30.2	0.0131529
30.3	0.0129728
30.4	0.0127963
30.5	0.0126235
30.6	0.0124571
30.7	0.0122961
30.8	0.01214
30.9	0.0119861
31	0.0118345
31.1	0.0116835
31.2	0.0115282
31.3	0.0113728
31.4	0.0112224
31.5	0.011076
31.6	0.0109305
31.7	0.0107883
31.8	0.0106461
31.9	0.0105024
32	0.0103571
32.1	0.0102119
32.2	0.0100735
32.3	0.00993933
32.4	0.00980568
32.5	0.0096703
32.6	0.00954011
32.7	0.00941323
32.8	0.00929405
32.9	0.00918075
33	0.00906742
33.1	0.00895177
33.2	0.00883528
33.3	0.00872217
33.4	0.00861023
33.5	0.00850197
33.6	0.00840111
33.7	0.00830674
33.8	0.00821234
33.9	0.00812491
34	0.00804592
34.1	0.00796497
34.2	0.00788808
34.3	0.0078121
34.4	0.00773893
34.5	0.0076717
34.6	0.00760683
34.7	0.00754545
34.8	0.00749218
34.9	0.00744009
35	0.00738328
35.1	0.00732089
35.2	0.00725578
35.3	0.00719271
35.4	0.00712613
35.5	0.00705739
35.6	0.00698995
35.7	0.00692067
35.8	0.0068466
35.9	0.00677118
36	0.00669504
36.1	0.00661986
36.2	0.00654607
36.3	0.0064696
36.4	0.00638689
36.5	0.00630247
36.6	0.0062169
36.7	0.00613118
36.8	0.00604542
36.9	0.00595738
37	0.00587301
37.1	0.00578328
37.2	0.00568921
37.3	0.00559119
37.4	0.0054921
37.5	0.00539201
37.6	0.00529459
37.7	0.00519734
37.8	0.00510232
37.9	0.00501109
38	0.00491884
38.1	0.00482892
38.2	0.00474498
38.3	0.00466594
38.4	0.00458897
38.5	0.00451277
38.6	0.00443728
38.7	0.00436347
38.8	0.00429312
38.9	0.00422743
39	0.00416279
39.1	0.00409653
39.2	0.00403068
39.3	0.00396575
39.4	0.00390889
39.5	0.00385474
39.6	0.00379937
39.7	0.00374114
39.8	0.00368581
39.9	0.00363082
40	0.00358189
40.1	0.00353697
40.2	0.00349888
40.3	0.00346457
40.4	0.00342797
40.5	0.00339181
40.6	0.00335799
40.7	0.00332944
40.8	0.00330332
40.9	0.00328097
41	0.00325909
41.1	0.00323203
41.2	0.00320529
41.3	0.00318516
41.4	0.00316823
41.5	0.00314953
41.6	0.00312876
41.7	0.00310474
41.8	0.00307978
41.9	0.00305607
42	0.00303799
42.1	0.00302508
42.2	0.00301617
42.3	0.0030095
42.4	0.00300637
42.5	0.00300207
42.6	0.00299922
42.7	0.00299978
42.8	0.003002
42.9	0.00300462
43	0.00300899
43.1	0.00301776
43.2	0.0030225
43.3	0.00302506
43.4	0.00303134
43.5	0.00303555
43.6	0.00303637
43.7	0.00303327
43.8	0.00302435
43.9	0.00302004
44	0.00302051
44.1	0.00302279
44.2	0.00303058
44.3	0.00303546
44.4	0.00304318
44.5	0.00305027
44.6	0.00305805
44.7	0.0030665
44.8	0.00307198
44.9	0.00307246
45	0.00306685
45.1	0.00305962
45.2	0.0030482
45.3	0.00302724
45.4	0.00300089
45.5	0.00296818
45.6	0.00293073
45.7	0.00288836
45.8	0.00284298
45.9	0.00279999
46	0.00275585
46.1	0.00271152
46.2	0.00266304
46.3	0.00261205
46.4	0.00255817
46.5	0.00250144
46.6	0.00244371
46.7	0.00238334
46.8	0.00232758
46.9	0.0022793
47	0.00223469
47.1	0.00219761
47.2	0.00216195
47.3	0.00212462
47.4	0.00208882
47.5	0.00205573
47.6	0.00202515
47.7	0.00198955
47.8	0.0019489
47.9	0.0019075
48	0.00186809
48.1	0.00183179
48.2	0.00179529
48.3	0.00176317
48.4	0.00173285
48.5	0.00170166
48.6	0.00166604
48.7	0.00162525
48.8	0.00158824
48.9	0.00155527
49	0.00152428
49.1	0.00149862
49.2	0.00147808
49.3	0.0014621
49.4	0.0014433
49.5	0.00142647
49.6	0.00141424
49.7	0.00140284
49.8	0.00138842
49.9	0.00137518
50	0.00135783
50.1	0.00133546
50.2	0.00131228
50.3	0.00128643
50.4	0.0012555
50.5	0.00122566
50.6	0.00119665
50.7	0.00116786
50.8	0.00114
50.9	0.00111251
51	0.00108557
51.1	0.00105793
51.2	0.00103382
51.3	0.00100732
51.4	0.000975292
51.5	0.000944086
51.6	0.000914786
51.7	0.000883151
51.8	0.000849139
51.9	0.000809558
52	0.000767828
52.1	0.000728073
52.2	0.000688166
52.3	0.000655403
52.4	0.000627802
52.5	0.000606496
52.6	0.000590592
52.7	0.00057779
52.8	0.000569132
52.9	0.000565344
53	0.000565151
53.1	0.000562712
53.2	0.0005614
53.3	0.000560551
53.4	0.000556829
53.5	0.000550125
53.6	0.000544475
53.7	0.000540681
53.8	0.000537444
53.9	0.000538384
54	0.000537808
54.1	0.000537585
54.2	0.000541235
54.3	0.000546704
54.4	0.000554689
54.5	0.00056915
54.6	0.000589683
54.7	0.000615117
54.8	0.000644851
54.9	0.00067828
55	0.000712694
55.1	0.000743853
55.2	0.000770123
55.3	0.000790617
55.4	0.000806414
55.5	0.000814863
55.6	0.000814787
55.7	0.000815636
55.8	0.000815595
55.9	0.000819914
56	0.000820978
56.1	0.000821311
56.2	0.000824083
56.3	0.000827405
56.4	0.000826736
56.5	0.000827618
56.6	0.000827557
56.7	0.000828538
56.8	0.000829035
56.9	0.000832446
57	0.000833888
57.1	0.000833072
57.2	0.000835542
57.3	0.000841174
57.4	0.000848308
57.5	0.000854755
57.6	0.000857924
57.7	0.000857359
57.8	0.000850478
57.9	0.000835368
58	0.000819324
58.1	0.000802442
58.2	0.000783586
58.3	0.000761066
58.4	0.000737159
58.5	0.000714467
58.6	0.000692192
58.7	0.000669959
58.8	0.000644874
58.9	0.000619109
59	0.000595535
59.1	0.000569888
59.2	0.000543168
59.3	0.000515294
59.4	0.000489703
59.5	0.000467591
59.6	0.000443781
59.7	0.000415951
59.8	0.000387766
59.9	0.000361001
60	0.000333897
60.1	0.000308986
60.2	0.000288883
60.3	0.000269776
60.4	0.000254504
60.5	0.000240308
60.6	0.000225138
60.7	0.000206289
60.8	0.000181233
60.9	0.000154453
61	0.000124453
61.1	9.19026e-05
61.2	6.16401e-05
61.3	3.59164e-05
61.4	1.05926e-05
61.5	-1.52186e-05
61.6	-3.75803e-05
61.7	-5.52219e-05
61.8	-7.30953e-05
61.9	-9.35333e-05
62	-0.000116858
62.1	-0.00014191
62.2	-0.000169787
62.3	-0.000200954
62.4	-0.000237212
62.5	-0.000272519
62.6	-0.000304977
62.7	-0.000338034
62.8	-0.000375196
62.9	-0.000417342
63	-0.000463601
63.1	-0.000512641
63.2	-0.000563465
63.3	-0.000613709
63.4	-0.000664907
63.5	-0.000715184
63.6	-0.000763598
63.7	-0.000807406
63.8	-0.000846633
63.9	-0.000885371
64	-0.000921132
64.1	-0.00095897
64.2	-0.000997926
64.3	-0.00103563
64.4	-0.00107407
64.5	-0.00111369
64.6	-0.00115065
64.7	-0.0011843
64.8	-0.00121498
64.9	-0.00124571
65	-0.0012728
65.1	-0.00129734
65.2	-0.00132536
65.3	-0.0013564
65.4	-0.00138916
65.5	-0.00142309
65.6	-0.00145578
65.7	-0.00149077
65.8	-0.00152045
65.9	-0.00154467
66	-0.00157036
66.1	-0.00159759
66.2	-0.00162532
66.3	-0.00165604
66.4	-0.00168951
66.5	-0.00172786
66.6	-0.00176919
66.7	-0.00181163
66.8	-0.00185749
66.9	-0.00190395
67	-0.00194755
67.1	-0.00198739
67.2	-0.00202513
67.3	-0.00206014
67.4	-0.00209128
67.5	-0.00211682
67.6	-0.00213712
67.7	-0.0021531
67.8	-0.00216568
67.9	-0.00217869
68	-0.00218992
68.1	-0.00220432
68.2	-0.00221463
68.3	-0.00222188
68.4	-0.00222665
68.5	-0.00222512
68.6	-0.00222079
68.7	-0.00222115
68.8	-0.00222613
68.9	-0.00223132
69	-0.00223788
69.1	-0.00224426
69.2	-0.00225102
69.3	-0.00225445
69.4	-0.00226196
69.5	-0.0022718
69.6	-0.00227895
69.7	-0.00228846
69.8	-0.00229805
69.9	-0.00230847
70	-0.00231945
70.1	-0.00232888
70.2	-0.00234331
70.3	-0.00236458
70.4	-0.00238781
70.5	-0.00240906
70.6	-0.00242599
70.7	-0.00243695
70.8	-0.00244371
70.9	-0.00245014
71	-0.00245498
71.1	-0.002462
71.2	-0.00247394
71.3	-0.00248871
71.4	-0.0025007
71.5	-0.00250958
71.6	-0.00251819
71.7	-0.00252435
71.8	-0.00253321
71.9	-0.00253988
72	-0.00254062
72.1	-0.00253647
72.2	-0.00253786
72.3	-0.00253991
72.4	-0.00254014
72.5	-0.00253274
72.6	-0.00251576
72.7	-0.00249347
72.8	-0.00247006
72.9	-0.00244397
73	-0.00241759
73.1	-0.00239843
73.2	-0.00238039
73.3	-0.00236157
73.4	-0.00234458
73.5	-0.0023303
73.6	-0.00231898
73.7	-0.00231173
73.8	-0.00230299
73.9	-0.0022929
74	-0.00228343
74.1	-0.00227662
74.2	-0.00227523
74.3	-0.00227661
74.4	-0.00228269
74.5	-0.00229044
74.6	-0.00229777
74.7	-0.00230664
74.8	-0.00231674
74.9	-0.00232623
75	-0.00233106
75.1	-0.00233736
75.2	-0.00234329
75.3	-0.00235384
75.4	-0.00236448
75.5	-0.00237594
75.6	-0.00239117
75.7	-0.00240772
75.8	-0.00242584
75.9	-0.00244513
76	-0.00245891
76.1	-0.00246859
76.2	-0.00247877
76.3	-0.0024896
76.4	-0.00250286
76.5	-0.00251751
76.6	-0.00252791
76.7	-0.00253492
76.8	-0.00254198
76.9	-0.002551
77	-0.00256425
77.1	-0.00258148
77.2	-0.00260045
77.3	-0.00261974
77.4	-0.00263688
77.5	-0.00265253
77.6	-0.00266322
77.7	-0.00267064
77.8	-0.00267624
77.9	-0.00268306
78	-0.00268779
78.1	-0.00268723
78.2	-0.00268118
78.3	-0.00267683
78.4	-0.00267492
78.5	-0.00267151
78.6	-0.00266562
78.7	-0.00265711
78.8	-0.00264433
78.9	-0.00263327
79	-0.00262743
79.1	-0.00261916
79.2	-0.002604
79.3	-0.0025865
79.4	-0.00256719
79.5	-0.00254918
79.6	-0.00252914
79.7	-0.00250694
79.8	-0.00248545
79.9	-0.00246346
80	-0.00244039
80.1	-0.00241358
80.2	-0.00238677
80.3	-0.00236301
80.4	-0.00234782
80.5	-0.00233352
80.6	-0.0023212
80.7	-0.00231338
80.8	-0.00230659
80.9	-0.00230003
81	-0.0022938
81.1	-0.00228579
81.2	-0.00227759
81.3	-0.00227026
81.4	-0.00226495
81.5	-0.00226415
81.6	-0.0022636
81.7	-0.00226381
81.8	-0.00226595
81.9	-0.00226811
82	-0.0022739
82.1	-0.00227812
82.2	-0.0022827
82.3	-0.00228751
82.4	-0.00229425
82.5	-0.00229799
82.6	-0.00229743
82.7	-0.00229756
82.8	-0.00229534
82.9	-0.00229549
83	-0.00229891
83.1	-0.002301
83.2	-0.00230299
83.3	-0.00230507
83.4	-0.00230183
83.5	-0.00228963
83.6	-0.00227039
83.7	-0.00224735
83.8	-0.00222037
83.9	-0.00219038
84	-0.00215995
84.1	-0.00213151
84.2	-0.00210959
84.3	-0.00208534
84.4	-0.00206142
84.5	-0.00204176
84.6	-0.00202234
84.7	-0.00199995
84.8	-0.00197678
84.9	-0.0019496
85	-0.00192242
85.1	-0.00189678
85.2	-0.00187147
85.3	-0.00184639
85.4	-0.0018215
85.5	-0.00179934
85.6	-0.00177369
85.7	-0.00174675
85.8	-0.00171507
85.9	-0.00168059
86	-0.00163465
86.1	-0.00158547
86.2	-0.00153775
86.3	-0.00148987
86.4	-0.00144096
86.5	-0.00139638
86.6	-0.00135568
86.7	-0.00131655
86.8	-0.00128097
86.9	-0.00124355
87	-0.00120738
87.1	-0.00117167
87.2	-0.00113776
87.3	-0.00110717
87.4	-0.00107748
87.5	-0.00103939
87.6	-0.000995329
87.7	-0.000952508
87.8	-0.000907031
87.9	-0.000868388
88	-0.000833923
88.1	-0.000801723
88.2	-0.000769242
88.3	-0.000735304
88.4	-0.000705175
88.5	-0.000676366
88.6	-0.000649802
88.7	-0.000622361
88.8	-0.000593185
88.9	-0.000564566
89	-0.000532741
89.1	-0.000499376
89.2	-0.000463321
89.3	-0.000429789
89.4	-0.000398059
89.5	-0.000370699
89.6	-0.000346734
89.7	-0.000326822
89.8	-0.000304404
89.9	-0.000277893
90	-0.000245991
90.1	-0.000213347
90.2	-0.000177904
90.3	-0.000140382
90.4	-9.93977e-05
90.5	-5.09338e-05
90.6	-9.39234e-07
90.7	4.79627e-05
90.8	9.7887e-05
90.9	0.000147881
91	0.000197779
91.1	0.000242905
91.2	0.000285335
91.3	0.00032182
91.4	0.000354393
91.5	0.000385278
91.6	0.000415549
91.7	0.000444255
91.8	0.000472952
91.9	0.000499154
92	0.000524196
92.1	0.000544895
92.2	0.000560939
92.3	0.000578693
92.4	0.000601564
92.5	0.000628808
92.6	0.000655376
92.7	0.000677701
92.8	0.000698602
92.9	0.000720947
93	0.000746416
93.1	0.000773078
93.2	0.000795374
93.3	0.000816222
93.4	0.000836974
93.5	0.000853527
93.6	0.000866899
93.7	0.000876814
93.8	0.000888843
93.9	0.000901175
94	0.000908248
94.1	0.000914854
94.2	0.00091908
94.3	0.000922065
94.4	0.000923826
94.5	0.000929988
94.6	0.000936011
94.7	0.00094549
94.8	0.000956879
94.9	0.000967141
95	0.000974966
95.1	0.000983903
95.2	0.00099808
95.3	0.00101272
95.4	0.00102756
95.5	0.00104365
95.6	0.0010611
95.7	0.00108416
95.8	0.00111417
95.9	0.00114894
96	0.0011852
96.1	0.00121825
96.2	0.00124212
96.3	0.00126249
96.4	0.00128353
96.5	0.00130686
96.6	0.0013305
96.7	0.00135259
96.8	0.0013788
96.9	0.00141011
97	0.00144263
97.1	0.00147857
97.2	0.00151148
97.3	0.00154126
97.4	0.00156717
97.5	0.00158916
97.6	0.00160558
97.7	0.00162347
97.8	0.00164251
97.9	0.00165665
98	0.00166285
98.1	0.00166534
98.2	0.00166822
98.3	0.00167363
98.4	0.00167934
98.5	0.00168906
98.6	0.00170425
98.7	0.00171992
98.8	0.00173373
98.9	0.00174672
99	0.00175858
99.1	0.00176871
99.2	0.00178069
99.3	0.00178949
99.4	0.00180162
99.5	0.00181383
99.6	0.0018244
99.7	0.00183295
99.8	0.00183756
99.9	0.00183788
100	0.00183461
100.1	0.00182931
100.2	0.00182756
100.3	0.00182785
100.4	0.00182981
100.5	0.00182977
100.6	0.00182663
100.7	0.00182204
100.8	0.00182031
100.9	0.00182266
101	0.00182282
101.1	0.00182391
101.2	0.00182451
101.3	0.00182535
101.4	0.00182871
101.5	0.00183621
101.6	0.0018437
101.7	0.0018514
101.8	0.00186109
101.9	0.00186604
102	0.00186175
102.1	0.0018549
102.2	0.00184642
102.3	0.00183676
102.4	0.00182456
102.5	0.0018168
102.6	0.00180988
102.7	0.0018096
102.8	0.00181463
102.9	0.00181755
103	0.00181727
103.1	0.00181631
103.2	0.00181274
103.3	0.00181125
103.4	0.00180952
103.5	0.00180982
103.6	0.00181321
103.7	0.00181961
103.8	0.00182787
103.9	0.001833
104	0.0018382
104.1	0.00183925
104.2	0.00183815
104.3	0.00183889
104.4	0.00184178
104.5	0.00184681
104.6	0.00185468
104.7	0.00186387
104.8	0.00187058
104.9	0.00187506
105	0.00188056
105.1	0.00188496
105.2	0.0018917
105.3	0.00190083
105.4	0.00191091
105.5	0.00191479
105.6	0.00191632
105.7	0.00191939
105.8	0.0019289
105.9	0.00194316
106	0.00195604
106.1	0.00197
106.2	0.0019874
106.3	0.00200032
106.4	0.00201372
106.5	0.00202288
106.6	0.00203118
106.7	0.00203998
106.8	0.00204525
106.9	0.00204689
107	0.00204204
107.1	0.00203776
107.2	0.00202723
107.3	0.00201361
107.4	0.00199914
107.5	0.0019873
107.6	0.00197844
107.7	0.0019716
107.8	0.00196793
107.9	0.00196714
108	0.00196388
108.1	0.00195821
108.2	0.0019501
108.3	0.00194349
108.4	0.00193674
108.5	0.00192689
108.6	0.00191403
108.7	0.00190259
108.8	0.00188997
108.9	0.00187255
109	0.0018501
109.1	0.00182397
109.2	0.00179989
109.3	0.00177116
109.4	0.00173916
109.5	0.00170551
109.6	0.00167574
109.7	0.00164696
109.8	0.00161356
109.9	0.00158001
110	0.00154568
110.1	0.00150477
110.2	0.00145833
110.3	0.00140974
110.4	0.00135732
110.5	0.00130593
110.6	0.00125802
110.7	0.00121262
110.8	0.00116851
110.9	0.00112523
111	0.00108354
111.1	0.00104108
111.2	0.000998287
111.3	0.000953088
111.4	0.000903203
111.5	0.00085043
111.6	0.000797028
111.7	0.000745152
111.8	0.000692008
111.9	0.000642519
112	0.000597258
112.1	0.00055653
112.2	0.000522764
112.3	0.000495198
112.4	0.000472967
112.5	0.000454469
112.6	0.000435311
112.7	0.000416988
112.8	0.000396575
112.9	0.000371921
113	0.000340501
113.1	0.00030521
113.2	0.000270289
113.3	0.000231188
113.4	0.000187823
113.5	0.000145507
113.6	0.000100585
113.7	5.56088e-05
113.8	8.57005e-06
113.9	-4.101e-05
114	-9.47905e-05
114.1	-0.000147447
114.2	-0.000197504
114.3	-0.000242794
114.4	-0.000284954
114.5	-0.000323728
114.6	-0.000360156
114.7	-0.000402307
114.8	-0.000447656
114.9	-0.000489678
115	-0.000527351
115.1	-0.000564012
115.2	-0.000597529
115.3	-0.000634879
115.4	-0.000674108
115.5	-0.000713092
115.6	-0.000744992
115.7	-0.000771707
115.8	-0.000798626
115.9	-0.000827389
116	-0.000853425
116.1	-0.000871068
116.2	-0.000881276
116.3	-0.000885126
116.4	-0.000890252
116.5	-0.000893473
116.6	-0.000895999
116.7	-0.000898647
116.8	-0.000902167
116.9	-0.000906366
117	-0.000911478
117.1	-0.000916665
117.2	-0.000922988
117.3	-0.000932174
117.4	-0.000940251
117.5	-0.000944515
117.6	-0.000948481
117.7	-0.000950882
117.8	-0.000944845
117.9	-0.000929018
118	-0.000909676
118.1	-0.000888082
118.2	-0.000866092
118.3	-0.000844779
118.4	-0.000826392
118.5	-0.000807561
118.6	-0.00078633
118.7	-0.000771539
118.8	-0.000757121
118.9	-0.00074274
119	-0.000727244
119.1	-0.000710728
119.2	-0.000691073
119.3	-0.000665944
119.4	-0.000637582
119.5	-0.000606025
119.6	-0.000571679
119.7	-0.000540726
119.8	-0.000514011
119.9	-0.00049265
120	-0.000474367
120.1	-0.000460843
120.2	-0.000447015
120.3	-0.000430929
120.4	-0.000414273
120.5	-0.000393647
120.6	-0.000371003
120.7	-0.000347239
120.8	-0.000324197
120.9	-0.000303468
121	-0.000282124
121.1	-0.000265136
121.2	-0.000247016
121.3	-0.000232738
121.4	-0.000217751
121.5	-0.00020907
121.6	-0.000202762
121.7	-0.000199776
121.8	-0.000200215
121.9	-0.000195325
122	-0.000181895
122.1	-0.000166889
122.2	-0.000150971
122.3	-0.000134416
122.4	-0.000122161
122.5	-0.000115484
122.6	-0.000114684
122.7	-0.000122471
122.8	-0.000136447
122.9	-0.000155022
123	-0.000172449
123.1	-0.000189403
123.2	-0.000205752
123.3	-0.00021765
123.4	-0.000226413
123.5	-0.000232909
123.6	-0.000235646
123.7	-0.000244194
123.8	-0.000259283
123.9	-0.000282964
124	-0.000310639
124.1	-0.00034334
124.2	-0.000379176
124.3	-0.000420423
124.4	-0.000464136
124.5	-0.000508197
