LagTime	Correlation

0	0.66855
0.1	0.663529
0.2	0.656042
0.3	0.648014
0.4	0.639927
0.5	0.631901
0.6	0.623974
0.7	0.616144
0.8	0.608414
0.9	0.600786
1	0.593255
1.1	0.585822
1.2	0.578478
1.3	0.571228
1.4	0.564072
1.5	0.557008
1.6	0.550036
1.7	0.543154
1.8	0.536357
1.9	0.529642
2	0.523008
2.1	0.516459
2.2	0.509987
2.3	0.50359
2.4	0.497269
2.5	0.491025
2.6	0.484857
2.7	0.478764
2.8	0.47274
2.9	0.466787
3	0.460906
3.1	0.455101
3.2	0.449369
3.3	0.443709
3.4	0.438121
3.5	0.432603
3.6	0.427157
3.7	0.421781
3.8	0.416478
3.9	0.411246
4	0.406082
4.1	0.400985
4.2	0.395953
4.3	0.390984
4.4	0.386078
4.5	0.381231
4.6	0.376443
4.7	0.371714
4.8	0.367042
4.9	0.362429
5	0.357872
5.1	0.353369
5.2	0.348924
5.3	0.344532
5.4	0.340191
5.5	0.3359
5.6	0.331663
5.7	0.327485
5.8	0.323367
5.9	0.319305
6	0.315297
6.1	0.311346
6.2	0.30744
6.3	0.303584
6.4	0.299781
6.5	0.296027
6.6	0.292323
6.7	0.288661
6.8	0.285038
6.9	0.281461
7	0.277927
7.1	0.274435
7.2	0.270981
7.3	0.267573
7.4	0.264212
7.5	0.260894
7.6	0.257623
7.7	0.254398
7.8	0.251213
7.9	0.248066
8	0.24496
8.1	0.241891
8.2	0.238858
8.3	0.235861
8.4	0.232901
8.5	0.22998
8.6	0.227102
8.7	0.22426
8.8	0.221453
8.9	0.218682
9	0.215942
9.1	0.21323
9.2	0.21055
9.3	0.207902
9.4	0.205287
9.5	0.202704
9.6	0.200154
9.7	0.197641
9.8	0.195162
9.9	0.192713
10	0.190299
10.1	0.187914
10.2	0.185557
10.3	0.183225
10.4	0.180917
10.5	0.178633
10.6	0.176373
10.7	0.174139
10.8	0.171932
10.9	0.169754
11	0.167608
11.1	0.165489
11.2	0.163402
11.3	0.161345
11.4	0.15932
11.5	0.157324
11.6	0.155357
11.7	0.153417
11.8	0.151503
11.9	0.149608
12	0.147741
12.1	0.145894
12.2	0.144069
12.3	0.142269
12.4	0.14049
12.5	0.138734
12.6	0.137001
12.7	0.135295
12.8	0.133615
12.9	0.131956
13	0.130322
13.1	0.128708
13.2	0.127117
13.3	0.125552
13.4	0.124005
13.5	0.122475
13.6	0.120959
13.7	0.11946
13.8	0.117979
13.9	0.116515
14	0.115072
14.1	0.113648
14.2	0.112246
14.3	0.110861
14.4	0.109488
14.5	0.108127
14.6	0.10678
14.7	0.10545
14.8	0.104143
14.9	0.102855
15	0.101585
15.1	0.100334
15.2	0.0991032
15.3	0.0978932
15.4	0.0966997
15.5	0.09552
15.6	0.0943565
15.7	0.0932068
15.8	0.0920718
15.9	0.0909496
16	0.0898376
16.1	0.0887349
16.2	0.0876406
16.3	0.0865527
16.4	0.0854796
16.5	0.0844227
16.6	0.0833804
16.7	0.0823469
16.8	0.0813214
16.9	0.0803059
17	0.0793044
17.1	0.0783169
17.2	0.0773397
17.3	0.0763717
17.4	0.0754117
17.5	0.0744633
17.6	0.0735325
17.7	0.0726163
17.8	0.0717146
17.9	0.070827
18	0.0699537
18.1	0.0690927
18.2	0.0682466
18.3	0.0674106
18.4	0.0665824
18.5	0.065763
18.6	0.0649554
18.7	0.0641613
18.8	0.0633844
18.9	0.062623
19	0.0618743
19.1	0.0611395
19.2	0.0604182
19.3	0.0597094
19.4	0.0590091
19.5	0.0583103
19.6	0.0576216
19.7	0.0569464
19.8	0.0562752
19.9	0.0556086
20	0.0549435
20.1	0.0542867
20.2	0.0536358
20.3	0.0529889
20.4	0.0523499
20.5	0.0517192
20.6	0.0510947
20.7	0.0504746
20.8	0.04986
20.9	0.0492495
21	0.0486447
21.1	0.0480489
21.2	0.0474673
21.3	0.0468964
21.4	0.0463343
21.5	0.0457819
21.6	0.0452393
21.7	0.0447056
21.8	0.0441775
21.9	0.0436529
22	0.0431322
22.1	0.0426206
22.2	0.042115
22.3	0.0416182
22.4	0.0411314
22.5	0.0406512
22.6	0.0401746
22.7	0.0396998
22.8	0.0392308
22.9	0.0387683
23	0.0383071
23.1	0.0378495
23.2	0.0373963
23.3	0.036945
23.4	0.0365023
23.5	0.0360702
23.6	0.0356495
23.7	0.0352407
23.8	0.0348423
23.9	0.0344529
24	0.0340666
24.1	0.0336797
24.2	0.0332951
24.3	0.0329158
24.4	0.0325381
24.5	0.0321612
24.6	0.0317876
24.7	0.0314217
24.8	0.031066
24.9	0.0307174
25	0.0303698
25.1	0.0300255
25.2	0.0296826
25.3	0.029341
25.4	0.0290012
25.5	0.0286682
25.6	0.0283403
25.7	0.0280149
25.8	0.0276942
25.9	0.0273802
26	0.0270695
26.1	0.026759
26.2	0.0264484
26.3	0.0261415
26.4	0.0258374
26.5	0.0255349
26.6	0.0252362
26.7	0.0249414
26.8	0.0246508
26.9	0.0243663
27	0.024087
27.1	0.0238115
27.2	0.0235409
27.3	0.0232721
27.4	0.023008
27.5	0.0227476
27.6	0.0224875
27.7	0.0222268
27.8	0.0219725
27.9	0.0217263
28	0.0214853
28.1	0.0212436
28.2	0.0210021
28.3	0.0207662
28.4	0.0205369
28.5	0.0203112
28.6	0.0200874
28.7	0.0198655
28.8	0.0196494
28.9	0.0194385
29	0.019234
29.1	0.0190409
29.2	0.018858
29.3	0.01868
29.4	0.0185074
29.5	0.0183401
29.6	0.0181731
29.7	0.018011
29.8	0.0178543
29.9	0.0177033
30	0.0175549
30.1	0.0174086
30.2	0.0172647
30.3	0.0171253
30.4	0.0169912
30.5	0.0168589
30.6	0.0167272
30.7	0.0165905
30.8	0.0164587
30.9	0.0163269
31	0.0161947
31.1	0.0160616
31.2	0.015929
31.3	0.0157967
31.4	0.0156704
31.5	0.0155467
31.6	0.0154256
31.7	0.0153086
31.8	0.0151996
31.9	0.0150957
32	0.014994
32.1	0.0148945
32.2	0.0147996
32.3	0.0147122
32.4	0.0146331
32.5	0.0145536
32.6	0.014478
32.7	0.0144041
32.8	0.0143251
32.9	0.014241
33	0.0141544
33.1	0.014068
33.2	0.0139791
33.3	0.0138905
33.4	0.0138099
33.5	0.0137307
33.6	0.0136506
33.7	0.0135706
33.8	0.0134897
33.9	0.0134073
34	0.013324
34.1	0.0132386
34.2	0.0131517
34.3	0.0130678
34.4	0.0129888
34.5	0.0129114
34.6	0.0128384
34.7	0.0127647
34.8	0.0126959
34.9	0.012625
35	0.0125522
35.1	0.0124752
35.2	0.0123986
35.3	0.0123198
35.4	0.0122403
35.5	0.0121576
35.6	0.0120776
35.7	0.011999
35.8	0.0119216
35.9	0.0118433
36	0.0117694
36.1	0.011697
36.2	0.0116229
36.3	0.0115547
36.4	0.0114896
36.5	0.0114172
36.6	0.0113377
36.7	0.0112548
36.8	0.0111702
36.9	0.0110905
37	0.0110123
37.1	0.0109323
37.2	0.0108518
37.3	0.0107686
37.4	0.0106764
37.5	0.0105816
37.6	0.0104862
37.7	0.0103875
37.8	0.0102866
37.9	0.0101838
38	0.0100823
38.1	0.00998279
38.2	0.00988202
38.3	0.00977581
38.4	0.00966641
38.5	0.00955237
38.6	0.00943999
38.7	0.00933018
38.8	0.00922381
38.9	0.00912324
39	0.00902895
39.1	0.00894135
39.2	0.00885664
39.3	0.00877287
39.4	0.00869173
39.5	0.00861228
39.6	0.00853141
39.7	0.00845017
39.8	0.00836333
39.9	0.00828287
40	0.00820669
40.1	0.00813466
40.2	0.00806231
40.3	0.0079907
40.4	0.00791865
40.5	0.00784843
40.6	0.00777928
40.7	0.00771049
40.8	0.0076379
40.9	0.00756523
41	0.00749461
41.1	0.0074247
41.2	0.00735587
41.3	0.00728903
41.4	0.00722091
41.5	0.00715128
41.6	0.00708616
41.7	0.00702028
41.8	0.00695537
41.9	0.0068906
42	0.0068238
42.1	0.00675098
42.2	0.006676
42.3	0.006595
42.4	0.00651351
42.5	0.00643164
42.6	0.00635397
42.7	0.00628246
42.8	0.00622239
42.9	0.00616808
43	0.00611654
43.1	0.00606749
43.2	0.00601892
43.3	0.00596894
43.4	0.0059189
43.5	0.00586709
43.6	0.00581938
43.7	0.00576826
43.8	0.0057087
43.9	0.00564604
44	0.00557905
44.1	0.00551006
44.2	0.0054393
44.3	0.00536709
44.4	0.00529448
44.5	0.00522755
44.6	0.00516331
44.7	0.00509874
44.8	0.00503401
44.9	0.00496951
45	0.00490573
45.1	0.00483852
45.2	0.00477143
45.3	0.00470638
45.4	0.00464724
45.5	0.00459379
45.6	0.00454243
45.7	0.00449028
45.8	0.0044351
45.9	0.00437633
46	0.00430973
46.1	0.00423584
46.2	0.00415877
46.3	0.0040837
46.4	0.00401165
46.5	0.00394291
46.6	0.00387854
46.7	0.00381676
46.8	0.0037604
46.9	0.00370771
47	0.00365375
47.1	0.00360068
47.2	0.00355257
47.3	0.00350844
47.4	0.00346565
47.5	0.00342696
47.6	0.00339107
47.7	0.00335191
47.8	0.00331157
47.9	0.00327306
48	0.00324139
48.1	0.00320879
48.2	0.00317423
48.3	0.00314076
48.4	0.00310819
48.5	0.00307514
48.6	0.0030412
48.7	0.00300617
48.8	0.00297056
48.9	0.0029374
49	0.00291066
49.1	0.00288687
49.2	0.00286371
49.3	0.00284204
49.4	0.00282051
49.5	0.00279825
49.6	0.00277058
49.7	0.00273969
49.8	0.00271437
49.9	0.00269194
50	0.0026686
50.1	0.00264198
50.2	0.00261381
50.3	0.0025885
50.4	0.00256546
50.5	0.00254216
50.6	0.00251392
50.7	0.00248323
50.8	0.00245189
50.9	0.00242123
51	0.0023956
51.1	0.00237347
51.2	0.00235233
51.3	0.00232855
51.4	0.00230732
51.5	0.00228959
51.6	0.00226837
51.7	0.00224765
51.8	0.00222948
51.9	0.00221547
52	0.00220404
52.1	0.00219279
52.2	0.00217898
52.3	0.00216396
52.4	0.00214521
52.5	0.00212409
52.6	0.00210104
52.7	0.00207539
52.8	0.00204989
52.9	0.0020243
53	0.00199855
53.1	0.00197385
53.2	0.00194939
53.3	0.00192429
53.4	0.00189814
53.5	0.00187379
53.6	0.00185065
53.7	0.0018315
53.8	0.00181813
53.9	0.00180742
54	0.00180021
54.1	0.00179197
54.2	0.0017803
54.3	0.00176173
54.4	0.00174211
54.5	0.00172115
54.6	0.00170411
54.7	0.00169003
54.8	0.00167618
54.9	0.00166081
55	0.00164288
55.1	0.00162029
55.2	0.00159619
55.3	0.00156879
55.4	0.00153937
55.5	0.00151339
55.6	0.00148696
55.7	0.00146117
55.8	0.00143939
55.9	0.0014198
56	0.00140452
56.1	0.00138831
56.2	0.001372
56.3	0.00135609
56.4	0.00134039
56.5	0.00132576
56.6	0.00131139
56.7	0.00129678
56.8	0.00128555
56.9	0.00127159
57	0.00125637
57.1	0.0012398
57.2	0.00122194
57.3	0.00120745
57.4	0.00119507
57.5	0.00119055
57.6	0.00119455
57.7	0.00120059
57.8	0.00120593
57.9	0.00120997
58	0.00121702
58.1	0.00121963
58.2	0.00122054
58.3	0.0012206
58.4	0.00122519
58.5	0.0012361
58.6	0.0012469
58.7	0.00126119
58.8	0.00127715
58.9	0.00129279
59	0.00131136
59.1	0.00133398
59.2	0.00135572
59.3	0.00137645
59.4	0.00139463
59.5	0.00141561
59.6	0.00143359
59.7	0.00145054
59.8	0.00146783
59.9	0.00147941
60	0.00148883
60.1	0.00149775
60.2	0.00150681
60.3	0.0015137
60.4	0.0015203
60.5	0.00152265
60.6	0.00152576
60.7	0.00152559
60.8	0.00152312
60.9	0.0015225
61	0.00152009
61.1	0.00151709
61.2	0.00151299
61.3	0.00150945
61.4	0.00150861
61.5	0.00150899
61.6	0.00150612
61.7	0.00149326
61.8	0.00147823
61.9	0.00145909
62	0.00143556
62.1	0.00141402
62.2	0.00139513
62.3	0.00137747
62.4	0.00135936
62.5	0.001338
62.6	0.0013184
62.7	0.00129796
62.8	0.00127879
62.9	0.00126018
63	0.00124556
63.1	0.00123484
63.2	0.00122477
63.3	0.0012116
63.4	0.00119932
63.5	0.0011834
63.6	0.00116347
63.7	0.00114896
63.8	0.00113851
63.9	0.00112697
64	0.00111378
64.1	0.00110213
64.2	0.00108787
64.3	0.00107098
64.4	0.00105108
64.5	0.00102669
64.6	0.000997273
64.7	0.000966997
64.8	0.000940976
64.9	0.00091692
65	0.000887458
65.1	0.000851147
65.2	0.000813213
65.3	0.000778087
65.4	0.000742647
65.5	0.000709826
65.6	0.000678528
65.7	0.000644847
65.8	0.000612258
65.9	0.000580778
66	0.000552317
66.1	0.000528929
66.2	0.000509496
66.3	0.000489707
66.4	0.000470957
66.5	0.000458072
66.6	0.000446579
66.7	0.000432133
66.8	0.000422028
66.9	0.000416277
67	0.000410356
67.1	0.000400219
67.2	0.000385692
67.3	0.000369139
67.4	0.00035285
67.5	0.000336276
67.6	0.000317771
67.7	0.000293792
67.8	0.000270365
67.9	0.000251465
68	0.000236621
68.1	0.000222179
68.2	0.000201694
68.3	0.000177257
68.4	0.00015343
68.5	0.000132263
68.6	0.000114549
68.7	0.000102934
68.8	8.99003e-05
68.9	7.71099e-05
69	6.31889e-05
69.1	4.4297e-05
69.2	1.86529e-05
69.3	-1.10998e-05
69.4	-4.47145e-05
69.5	-7.79824e-05
69.6	-0.000112767
69.7	-0.000151433
69.8	-0.000186038
69.9	-0.00021834
70	-0.000244922
70.1	-0.000265817
70.2	-0.000281794
70.3	-0.000298127
70.4	-0.000312145
70.5	-0.000326197
70.6	-0.000338581
70.7	-0.00035193
70.8	-0.00036499
70.9	-0.00037236
71	-0.00037529
71.1	-0.000378267
71.2	-0.000378982
71.3	-0.000379421
71.4	-0.000385731
71.5	-0.000399011
71.6	-0.000411019
71.7	-0.000422361
71.8	-0.000431615
71.9	-0.000443898
72	-0.000460973
72.1	-0.000478527
72.2	-0.000496731
72.3	-0.000512737
72.4	-0.000532329
72.5	-0.000556796
72.6	-0.000578474
72.7	-0.000600278
72.8	-0.000626958
72.9	-0.000652434
73	-0.000675921
73.1	-0.000697
73.2	-0.000717032
73.3	-0.000738377
73.4	-0.000759446
73.5	-0.000778671
73.6	-0.000798746
73.7	-0.000820836
73.8	-0.000844367
73.9	-0.000874384
74	-0.000908106
74.1	-0.000944985
74.2	-0.000985571
74.3	-0.00102549
74.4	-0.00106473
74.5	-0.00110484
74.6	-0.0011452
74.7	-0.0011881
74.8	-0.00123109
74.9	-0.00127546
75	-0.00131743
75.1	-0.00135674
75.2	-0.00139277
75.3	-0.00142339
75.4	-0.0014503
75.5	-0.00148008
75.6	-0.00151222
75.7	-0.00153964
75.8	-0.00155702
75.9	-0.00156863
76	-0.00157357
76.1	-0.001575
76.2	-0.00157613
76.3	-0.00157135
76.4	-0.00156222
76.5	-0.00155006
76.6	-0.00153304
76.7	-0.00151173
76.8	-0.00148997
76.9	-0.0014685
77	-0.00145144
77.1	-0.00143575
77.2	-0.00141843
77.3	-0.00139883
77.4	-0.00138105
77.5	-0.00136214
77.6	-0.00134322
77.7	-0.00132472
77.8	-0.00130484
77.9	-0.00128549
78	-0.00126892
78.1	-0.00125023
78.2	-0.00123223
78.3	-0.00121788
78.4	-0.00120453
78.5	-0.00119048
78.6	-0.00117139
78.7	-0.00115043
78.8	-0.0011312
78.9	-0.00111212
79	-0.00109472
79.1	-0.00108139
79.2	-0.00107194
79.3	-0.00106146
79.4	-0.00104907
79.5	-0.00104067
79.6	-0.00103352
79.7	-0.00102493
79.8	-0.00101535
79.9	-0.00100582
80	-0.000999046
80.1	-0.000992924
80.2	-0.000986617
80.3	-0.000979793
80.4	-0.000976123
80.5	-0.000974868
80.6	-0.000975824
80.7	-0.000980058
80.8	-0.000986688
80.9	-0.000999262
81	-0.00101324
81.1	-0.0010264
81.2	-0.00103466
81.3	-0.00104224
81.4	-0.00104605
81.5	-0.00104818
81.6	-0.00105142
81.7	-0.00105452
81.8	-0.00105967
81.9	-0.00106631
82	-0.00107104
82.1	-0.00107695
82.2	-0.00108066
82.3	-0.00108288
82.4	-0.00108521
82.5	-0.00109116
82.6	-0.00110004
82.7	-0.00110692
82.8	-0.00111371
82.9	-0.00111706
83	-0.00111619
83.1	-0.00111033
83.2	-0.00109764
83.3	-0.00108353
83.4	-0.00107333
83.5	-0.00106405
83.6	-0.00105244
83.7	-0.00104065
83.8	-0.00103091
83.9	-0.00102153
84	-0.00100898
84.1	-0.000988421
84.2	-0.000970318
84.3	-0.000950831
84.4	-0.000932937
84.5	-0.000917219
84.6	-0.000899433
84.7	-0.000879043
84.8	-0.000861308
84.9	-0.000836946
85	-0.000809005
85.1	-0.000780013
85.2	-0.000750463
85.3	-0.000718151
85.4	-0.000687951
85.5	-0.000662071
85.6	-0.000632722
85.7	-0.000604397
85.8	-0.000573675
85.9	-0.000542218
86	-0.000515988
86.1	-0.000494214
86.2	-0.000475819
86.3	-0.00045908
86.4	-0.00044568
86.5	-0.000435255
86.6	-0.000430027
86.7	-0.000428973
86.8	-0.000434403
86.9	-0.000440114
87	-0.000445869
87.1	-0.000456745
87.2	-0.000467697
87.3	-0.000477664
87.4	-0.000488316
87.5	-0.000504762
87.6	-0.000524577
87.7	-0.00054447
87.8	-0.000564192
87.9	-0.000585865
88	-0.000606403
88.1	-0.000624412
88.2	-0.000641793
88.3	-0.000661042
88.4	-0.000681516
88.5	-0.000700946
88.6	-0.000720519
88.7	-0.000744454
88.8	-0.000768314
88.9	-0.000790381
89	-0.000812684
89.1	-0.000832503
89.2	-0.000853991
89.3	-0.000877551
89.4	-0.000900812
89.5	-0.00092341
89.6	-0.000947358
89.7	-0.000968797
89.8	-0.000992389
89.9	-0.00101879
90	-0.00104565
90.1	-0.00107789
90.2	-0.00111314
90.3	-0.001144
90.4	-0.00117597
90.5	-0.0012058
90.6	-0.00123354
90.7	-0.00125678
90.8	-0.00128366
90.9	-0.00130961
91	-0.00133485
91.1	-0.00136275
91.2	-0.00139185
91.3	-0.00142266
91.4	-0.00145374
91.5	-0.00148384
91.6	-0.00151296
91.7	-0.00153916
91.8	-0.00156504
91.9	-0.00158851
92	-0.00161052
92.1	-0.00163465
92.2	-0.00165903
92.3	-0.00168295
92.4	-0.00170907
92.5	-0.00173079
92.6	-0.00174922
92.7	-0.00175995
92.8	-0.00177007
92.9	-0.0017824
93	-0.00179696
93.1	-0.00180987
93.2	-0.00182232
93.3	-0.00183298
93.4	-0.00184394
93.5	-0.00185793
93.6	-0.00186923
93.7	-0.00187416
93.8	-0.00187272
93.9	-0.00187041
94	-0.00187021
94.1	-0.00187036
94.2	-0.0018724
94.3	-0.00187517
94.4	-0.00187794
94.5	-0.00187545
94.6	-0.00187903
94.7	-0.00188116
94.8	-0.00188036
94.9	-0.00187716
95	-0.00187337
95.1	-0.00187366
95.2	-0.00187665
95.3	-0.00187985
95.4	-0.00188209
95.5	-0.00188578
95.6	-0.00188957
95.7	-0.0018904
95.8	-0.00188654
95.9	-0.00188431
96	-0.00188634
96.1	-0.00189263
96.2	-0.00190072
96.3	-0.00191046
96.4	-0.0019208
96.5	-0.00193178
96.6	-0.00194289
96.7	-0.00195646
96.8	-0.0019761
96.9	-0.00200417
97	-0.00203426
97.1	-0.00206526
97.2	-0.00209383
97.3	-0.00211745
97.4	-0.00213391
97.5	-0.00214536
97.6	-0.00215896
97.7	-0.00217676
97.8	-0.00219812
97.9	-0.00222383
98	-0.00224936
98.1	-0.00227525
98.2	-0.00230223
98.3	-0.00233087
98.4	-0.00236135
98.5	-0.0023974
98.6	-0.0024407
98.7	-0.00248876
98.8	-0.00253863
98.9	-0.0025852
99	-0.00263191
99.1	-0.0026751
99.2	-0.00271644
99.3	-0.00276184
99.4	-0.00281067
99.5	-0.00286445
99.6	-0.00292282
99.7	-0.00298559
99.8	-0.00304856
99.9	-0.00311561
100	-0.00318184
100.1	-0.00324628
100.2	-0.00330734
100.3	-0.00336708
100.4	-0.00342516
100.5	-0.00347762
100.6	-0.00352224
100.7	-0.00356145
100.8	-0.00359647
100.9	-0.00363112
101	-0.00366943
101.1	-0.00370703
101.2	-0.00374352
101.3	-0.00378259
101.4	-0.00382625
101.5	-0.00386856
101.6	-0.00390757
101.7	-0.00393929
101.8	-0.00396142
101.9	-0.00397452
102	-0.00397814
102.1	-0.00398446
102.2	-0.003993
102.3	-0.00399915
102.4	-0.00400553
102.5	-0.00401191
102.6	-0.00401989
102.7	-0.00402464
102.8	-0.00402771
102.9	-0.00403082
103	-0.00403453
103.1	-0.00404233
103.2	-0.0040562
103.3	-0.00407249
103.4	-0.00408759
103.5	-0.00410244
103.6	-0.00411577
103.7	-0.00412619
103.8	-0.00413871
103.9	-0.00414614
104	-0.00415011
104.1	-0.00414676
104.2	-0.00414025
104.3	-0.00412867
104.4	-0.00411014
104.5	-0.00408461
104.6	-0.00405477
104.7	-0.0040253
104.8	-0.00399917
104.9	-0.00397483
105	-0.00395651
105.1	-0.00393956
105.2	-0.00392064
105.3	-0.00389886
105.4	-0.00387648
105.5	-0.00385393
105.6	-0.00383301
105.7	-0.00381042
105.8	-0.00378642
105.9	-0.00376795
106	-0.0037558
106.1	-0.00374332
106.2	-0.00373173
106.3	-0.00372137
106.4	-0.00371164
106.5	-0.00370099
106.6	-0.00368779
106.7	-0.00367083
106.8	-0.003648
106.9	-0.00362551
107	-0.00360362
107.1	-0.00358238
107.2	-0.00356255
107.3	-0.00354554
107.4	-0.00353065
107.5	-0.00351778
107.6	-0.00350724
107.7	-0.003501
107.8	-0.00349875
107.9	-0.00349767
108	-0.00349977
108.1	-0.00350654
108.2	-0.00351552
108.3	-0.0035256
108.4	-0.00353258
108.5	-0.00353838
108.6	-0.00354004
108.7	-0.00353558
108.8	-0.00353173
108.9	-0.00353082
109	-0.00353153
109.1	-0.00353685
109.2	-0.00354578
109.3	-0.00355295
109.4	-0.00355905
109.5	-0.003555
109.6	-0.00354539
109.7	-0.00353124
109.8	-0.00351097
109.9	-0.00348875
110	-0.00347003
110.1	-0.00344697
110.2	-0.00342744
110.3	-0.00340713
110.4	-0.00338815
110.5	-0.00336721
110.6	-0.00334823
110.7	-0.0033309
110.8	-0.00330946
110.9	-0.00328404
111	-0.00325848
111.1	-0.00322978
111.2	-0.00319858
111.3	-0.00316497
111.4	-0.00313541
111.5	-0.00311016
111.6	-0.00308878
111.7	-0.00306741
111.8	-0.00304479
111.9	-0.00301797
112	-0.00298948
112.1	-0.00296092
112.2	-0.00292972
112.3	-0.00289808
112.4	-0.00286841
112.5	-0.00284537
112.6	-0.00282338
112.7	-0.00280041
112.8	-0.00277555
112.9	-0.00274585
113	-0.00271362
113.1	-0.00268552
113.2	-0.00265475
113.3	-0.00262295
113.4	-0.00259064
113.5	-0.00255821
113.6	-0.00252355
113.7	-0.00248961
113.8	-0.00245395
113.9	-0.00241862
114	-0.00238034
114.1	-0.00234205
114.2	-0.0022989
114.3	-0.00224622
114.4	-0.00218779
114.5	-0.00213184
114.6	-0.0020772
114.7	-0.00202842
114.8	-0.00198198
114.9	-0.0019356
115	-0.0018889
115.1	-0.0018439
115.2	-0.00179956
115.3	-0.00175815
115.4	-0.00172066
115.5	-0.0016879
115.6	-0.00165108
115.7	-0.00161432
115.8	-0.00157916
115.9	-0.0015417
116	-0.00149827
116.1	-0.00144968
116.2	-0.00139931
116.3	-0.00135117
116.4	-0.00130202
116.5	-0.00125016
116.6	-0.0011987
116.7	-0.00114594
116.8	-0.00109068
116.9	-0.0010392
117	-0.000990515
117.1	-0.00094124
117.2	-0.000887678
117.3	-0.00082574
117.4	-0.000759837
117.5	-0.000695463
117.6	-0.000630021
117.7	-0.000565289
117.8	-0.000504071
117.9	-0.000445342
118	-0.000385894
118.1	-0.000326038
118.2	-0.000272943
118.3	-0.000219066
118.4	-0.000169342
118.5	-0.000124174
118.6	-8.55987e-05
118.7	-5.61162e-05
118.8	-2.90527e-05
118.9	-8.24356e-07
119	2.66579e-05
119.1	5.62181e-05
119.2	8.78447e-05
119.3	0.000118722
119.4	0.000149546
119.5	0.000179905
119.6	0.000209166
119.7	0.000235722
119.8	0.000263667
119.9	0.000284583
120	0.000301928
120.1	0.000323151
120.2	0.000348407
120.3	0.000384799
120.4	0.000427969
120.5	0.000476748
120.6	0.000527774
120.7	0.000577013
120.8	0.000617506
120.9	0.000648107
121	0.000674406
121.1	0.000700691
121.2	0.000728878
121.3	0.000755527
121.4	0.000785032
121.5	0.000818369
121.6	0.000849273
121.7	0.000879125
121.8	0.000907211
121.9	0.00093507
122	0.000961132
122.1	0.00098655
122.2	0.00100929
122.3	0.00103
122.4	0.00104664
122.5	0.00106319
122.6	0.00107742
122.7	0.00108973
122.8	0.00109874
122.9	0.00110308
123	0.00110576
123.1	0.00110959
123.2	0.00111898
123.3	0.00113292
123.4	0.00114375
123.5	0.00115003
123.6	0.00115499
123.7	0.00115462
123.8	0.00115265
123.9	0.00114905
124	0.00114768
124.1	0.00114717
124.2	0.00114742
124.3	0.00114743
124.4	0.00114645
124.5	0.00114149
124.6	0.00113826
124.7	0.00113836
124.8	0.00114342
124.9	0.00115199
125	0.00116486
125.1	0.00117777
