LagTime	Correlation

0	2.07471
0.1	2.0697
0.2	2.0622
0.3	2.05413
0.4	2.04596
0.5	2.03781
0.6	2.02971
0.7	2.02167
0.8	2.01369
0.9	2.00576
1	1.9979
1.1	1.99011
1.2	1.98238
1.3	1.97471
1.4	1.9671
1.5	1.95954
1.6	1.95204
1.7	1.94459
1.8	1.93719
1.9	1.92985
2	1.92258
2.1	1.91536
2.2	1.90818
2.3	1.90105
2.4	1.89398
2.5	1.88695
2.6	1.87997
2.7	1.87304
2.8	1.86618
2.9	1.85936
3	1.8526
3.1	1.84588
3.2	1.83919
3.3	1.83254
3.4	1.82594
3.5	1.81938
3.6	1.81286
3.7	1.80638
3.8	1.79996
3.9	1.79358
4	1.78723
4.1	1.78093
4.2	1.77467
4.3	1.76845
4.4	1.76227
4.5	1.75612
4.6	1.75002
4.7	1.74395
4.8	1.73793
4.9	1.73194
5	1.72599
5.1	1.72007
5.2	1.7142
5.3	1.70836
5.4	1.70256
5.5	1.6968
5.6	1.69107
5.7	1.68539
5.8	1.67974
5.9	1.67413
6	1.66856
6.1	1.66302
6.2	1.65751
6.3	1.65203
6.4	1.64659
6.5	1.64117
6.6	1.63579
6.7	1.63043
6.8	1.62512
6.9	1.61983
7	1.61459
7.1	1.60937
7.2	1.60418
7.3	1.59902
7.4	1.59389
7.5	1.58879
7.6	1.58373
7.7	1.57869
7.8	1.57369
7.9	1.5687
8	1.56374
8.1	1.55881
8.2	1.5539
8.3	1.54903
8.4	1.54418
8.5	1.53935
8.6	1.53455
8.7	1.52978
8.8	1.52503
8.9	1.5203
9	1.51559
9.1	1.51091
9.2	1.50625
9.3	1.50162
9.4	1.49701
9.5	1.49242
9.6	1.48786
9.7	1.48333
9.8	1.47882
9.9	1.47434
10	1.46988
10.1	1.46544
10.2	1.46102
10.3	1.45662
10.4	1.45224
10.5	1.44788
10.6	1.44355
10.7	1.43924
10.8	1.43495
10.9	1.43069
11	1.42646
11.1	1.42225
11.2	1.41806
11.3	1.41389
11.4	1.40974
11.5	1.40562
11.6	1.40152
11.7	1.39744
11.8	1.39338
11.9	1.38934
12	1.38531
12.1	1.38131
12.2	1.37731
12.3	1.37334
12.4	1.36939
12.5	1.36546
12.6	1.36155
12.7	1.35766
12.8	1.35378
12.9	1.34991
13	1.34606
13.1	1.34223
13.2	1.33842
13.3	1.33462
13.4	1.33085
13.5	1.32709
13.6	1.32334
13.7	1.31961
13.8	1.3159
13.9	1.31221
14	1.30853
14.1	1.30488
14.2	1.30123
14.3	1.29761
14.4	1.29401
14.5	1.29041
14.6	1.28684
14.7	1.28328
14.8	1.27973
14.9	1.27621
15	1.27268
15.1	1.26918
15.2	1.26568
15.3	1.2622
15.4	1.25873
15.5	1.25528
15.6	1.25183
15.7	1.2484
15.8	1.24499
15.9	1.2416
16	1.23823
16.1	1.23488
16.2	1.23154
16.3	1.22822
16.4	1.2249
16.5	1.2216
16.6	1.21831
16.7	1.21504
16.8	1.21178
16.9	1.20855
17	1.20532
17.1	1.20209
17.2	1.19887
17.3	1.19566
17.4	1.19247
17.5	1.18928
17.6	1.18611
17.7	1.18295
17.8	1.17981
17.9	1.17668
18	1.17357
18.1	1.17047
18.2	1.16739
18.3	1.16431
18.4	1.16125
18.5	1.1582
18.6	1.15516
18.7	1.15213
18.8	1.14911
18.9	1.14611
19	1.14312
19.1	1.14014
19.2	1.13716
19.3	1.1342
19.4	1.13123
19.5	1.12828
19.6	1.12534
19.7	1.12241
19.8	1.11949
19.9	1.11659
20	1.11369
20.1	1.1108
20.2	1.10793
20.3	1.10509
20.4	1.10225
20.5	1.09942
20.6	1.09659
20.7	1.09378
20.8	1.09098
20.9	1.08819
21	1.08541
21.1	1.08265
21.2	1.0799
21.3	1.07716
21.4	1.07444
21.5	1.07172
21.6	1.06901
21.7	1.06631
21.8	1.06362
21.9	1.06093
22	1.05825
22.1	1.05559
22.2	1.05293
22.3	1.05029
22.4	1.04765
22.5	1.04502
22.6	1.0424
22.7	1.03978
22.8	1.03718
22.9	1.03459
23	1.03201
23.1	1.02944
23.2	1.02688
23.3	1.02434
23.4	1.0218
23.5	1.01926
23.6	1.01674
23.7	1.01422
23.8	1.01171
23.9	1.0092
24	1.0067
24.1	1.00422
24.2	1.00174
24.3	0.99928
24.4	0.996826
24.5	0.994381
24.6	0.991943
24.7	0.989515
24.8	0.987095
24.9	0.984686
25	0.982287
25.1	0.979898
25.2	0.977514
25.3	0.975134
25.4	0.972753
25.5	0.970379
25.6	0.968008
25.7	0.965641
25.8	0.963281
25.9	0.960936
26	0.958599
26.1	0.956265
26.2	0.953931
26.3	0.951598
26.4	0.949273
26.5	0.946954
26.6	0.944638
26.7	0.942327
26.8	0.940019
26.9	0.93771
27	0.935398
27.1	0.933088
27.2	0.930776
27.3	0.928466
27.4	0.926166
27.5	0.923877
27.6	0.921598
27.7	0.919333
27.8	0.917075
27.9	0.914823
28	0.912583
28.1	0.910348
28.2	0.908125
28.3	0.905914
28.4	0.903716
28.5	0.901533
28.6	0.899365
28.7	0.89721
28.8	0.895059
28.9	0.892911
29	0.890771
29.1	0.888638
29.2	0.886512
29.3	0.884396
29.4	0.882288
29.5	0.880184
29.6	0.878088
29.7	0.876
29.8	0.873919
29.9	0.871844
30	0.869772
30.1	0.867703
30.2	0.865632
30.3	0.863565
30.4	0.861504
30.5	0.859456
30.6	0.857416
30.7	0.855381
30.8	0.853351
30.9	0.851327
31	0.849308
31.1	0.847287
31.2	0.845269
31.3	0.843258
31.4	0.841247
31.5	0.83924
31.6	0.837235
31.7	0.835234
31.8	0.833245
31.9	0.831266
32	0.829294
32.1	0.827331
32.2	0.825375
32.3	0.823427
32.4	0.821485
32.5	0.819548
32.6	0.817616
32.7	0.81569
32.8	0.813768
32.9	0.811854
33	0.809945
33.1	0.808045
33.2	0.806152
33.3	0.804258
33.4	0.802366
33.5	0.800477
33.6	0.798587
33.7	0.796691
33.8	0.794797
33.9	0.792902
34	0.791014
34.1	0.78913
34.2	0.78725
34.3	0.785376
34.4	0.783508
34.5	0.781643
34.6	0.779785
34.7	0.777933
34.8	0.776085
34.9	0.77424
35	0.772399
35.1	0.770558
35.2	0.768723
35.3	0.766894
35.4	0.765065
35.5	0.763245
35.6	0.761436
35.7	0.759637
35.8	0.757845
35.9	0.75606
36	0.754281
36.1	0.752507
36.2	0.750742
36.3	0.748986
36.4	0.747237
36.5	0.745495
36.6	0.743759
36.7	0.742027
36.8	0.740297
36.9	0.738568
37	0.736841
37.1	0.735119
37.2	0.733395
37.3	0.731676
37.4	0.729964
37.5	0.728259
37.6	0.726563
37.7	0.72487
37.8	0.723183
37.9	0.721503
38	0.719827
38.1	0.718157
38.2	0.716495
38.3	0.714839
38.4	0.713196
38.5	0.71156
38.6	0.709926
38.7	0.708293
38.8	0.706668
38.9	0.705049
39	0.703434
39.1	0.701823
39.2	0.700217
39.3	0.698618
39.4	0.697023
39.5	0.69544
39.6	0.693867
39.7	0.692299
39.8	0.690737
39.9	0.689181
40	0.687634
40.1	0.686092
40.2	0.684553
40.3	0.683017
40.4	0.681487
40.5	0.679957
40.6	0.678427
40.7	0.676899
40.8	0.675374
40.9	0.673851
41	0.67233
41.1	0.670814
41.2	0.669302
41.3	0.66779
41.4	0.666277
41.5	0.664768
41.6	0.66326
41.7	0.66176
41.8	0.660266
41.9	0.658771
42	0.657278
42.1	0.655792
42.2	0.65431
42.3	0.652831
42.4	0.651355
42.5	0.649882
42.6	0.648411
42.7	0.646943
42.8	0.645482
42.9	0.644026
43	0.642572
43.1	0.641125
43.2	0.639684
43.3	0.638247
43.4	0.636812
43.5	0.635378
43.6	0.633943
43.7	0.632508
43.8	0.631073
43.9	0.62964
44	0.628209
44.1	0.626779
44.2	0.62535
44.3	0.62392
44.4	0.62249
44.5	0.621059
44.6	0.619635
44.7	0.618214
44.8	0.61679
44.9	0.615368
45	0.613953
45.1	0.612548
45.2	0.611149
45.3	0.609759
45.4	0.608374
45.5	0.606991
45.6	0.605614
45.7	0.604238
45.8	0.602866
45.9	0.601496
46	0.60013
46.1	0.598764
46.2	0.597393
46.3	0.59602
46.4	0.594654
46.5	0.593299
46.6	0.591947
46.7	0.590591
46.8	0.589236
46.9	0.587889
47	0.586551
47.1	0.585218
47.2	0.583894
47.3	0.582577
47.4	0.581266
47.5	0.579957
47.6	0.578647
47.7	0.577341
47.8	0.576032
47.9	0.574722
48	0.573413
48.1	0.572102
48.2	0.570788
48.3	0.569476
48.4	0.568168
48.5	0.566861
48.6	0.565555
48.7	0.564249
48.8	0.562941
48.9	0.561639
49	0.560339
49.1	0.559043
49.2	0.557753
49.3	0.556467
49.4	0.555183
49.5	0.553904
49.6	0.552633
49.7	0.55137
49.8	0.550109
49.9	0.548851
50	0.547596
50.1	0.546345
50.2	0.545096
50.3	0.543853
50.4	0.542617
50.5	0.541385
50.6	0.54016
50.7	0.538937
50.8	0.537714
50.9	0.536492
51	0.535275
51.1	0.53406
51.2	0.532844
51.3	0.531628
51.4	0.530417
51.5	0.529207
51.6	0.527998
51.7	0.526784
51.8	0.525568
51.9	0.524352
52	0.523141
52.1	0.521938
52.2	0.52074
52.3	0.519547
52.4	0.518356
52.5	0.517164
52.6	0.515974
52.7	0.514794
52.8	0.51362
52.9	0.512451
53	0.51129
53.1	0.510136
53.2	0.508983
53.3	0.507833
53.4	0.506687
53.5	0.505546
53.6	0.504409
53.7	0.503278
53.8	0.502155
53.9	0.501037
54	0.499927
54.1	0.498828
54.2	0.497732
54.3	0.496637
54.4	0.495544
54.5	0.494454
54.6	0.493367
54.7	0.492281
54.8	0.49119
54.9	0.490099
55	0.489018
55.1	0.487947
55.2	0.486881
55.3	0.485821
55.4	0.484762
55.5	0.483703
55.6	0.482645
55.7	0.481587
55.8	0.480532
55.9	0.479473
56	0.478415
56.1	0.477358
56.2	0.476305
56.3	0.475251
56.4	0.474195
56.5	0.473138
56.6	0.472083
56.7	0.471029
56.8	0.469977
56.9	0.468928
57	0.467879
57.1	0.466831
57.2	0.465784
57.3	0.464736
57.4	0.463693
57.5	0.462652
57.6	0.461609
57.7	0.460562
57.8	0.459511
57.9	0.458464
58	0.457417
58.1	0.456373
58.2	0.455328
58.3	0.454285
58.4	0.453245
58.5	0.452211
58.6	0.451184
58.7	0.45016
58.8	0.449139
58.9	0.448118
59	0.447097
59.1	0.446076
59.2	0.445055
59.3	0.444036
59.4	0.443021
59.5	0.442009
59.6	0.440997
59.7	0.439987
59.8	0.438979
59.9	0.437969
60	0.436957
60.1	0.435942
60.2	0.434934
60.3	0.433926
60.4	0.432918
60.5	0.431914
60.6	0.430913
60.7	0.429914
60.8	0.42892
60.9	0.427932
61	0.426949
61.1	0.42597
61.2	0.424994
61.3	0.424016
61.4	0.423037
61.5	0.422057
61.6	0.421082
61.7	0.420113
61.8	0.419145
61.9	0.418179
62	0.417222
62.1	0.416273
62.2	0.41533
62.3	0.414387
62.4	0.413445
62.5	0.412503
62.6	0.411564
62.7	0.410624
62.8	0.409688
62.9	0.408754
63	0.407824
63.1	0.406896
63.2	0.405971
63.3	0.405048
63.4	0.404128
63.5	0.403211
63.6	0.402293
63.7	0.401375
63.8	0.400462
63.9	0.399552
64	0.398641
64.1	0.397729
64.2	0.396821
64.3	0.395916
64.4	0.395013
64.5	0.394113
64.6	0.393217
64.7	0.392323
64.8	0.391433
64.9	0.39055
65	0.389674
65.1	0.388799
65.2	0.387927
65.3	0.387061
65.4	0.386204
65.5	0.385349
65.6	0.384493
65.7	0.383637
65.8	0.382782
65.9	0.381936
66	0.3811
66.1	0.380269
66.2	0.379441
66.3	0.378616
66.4	0.377793
66.5	0.376971
66.6	0.376151
66.7	0.375331
66.8	0.374516
66.9	0.373705
67	0.372895
67.1	0.372085
67.2	0.371275
67.3	0.37047
67.4	0.369667
67.5	0.368865
67.6	0.368062
67.7	0.367258
67.8	0.366454
67.9	0.365647
68	0.364839
68.1	0.364034
68.2	0.363229
68.3	0.362431
68.4	0.361644
68.5	0.360866
68.6	0.360092
68.7	0.359318
68.8	0.358543
68.9	0.357769
69	0.356994
69.1	0.356223
69.2	0.35545
69.3	0.354671
69.4	0.353891
69.5	0.353109
69.6	0.35233
69.7	0.351551
69.8	0.350773
69.9	0.349995
70	0.349218
70.1	0.348444
70.2	0.347673
70.3	0.346903
70.4	0.346136
70.5	0.34537
70.6	0.344609
70.7	0.343851
70.8	0.343091
70.9	0.34233
71	0.341572
71.1	0.34082
71.2	0.340074
71.3	0.339331
71.4	0.338587
71.5	0.337844
71.6	0.337098
71.7	0.336356
71.8	0.335614
71.9	0.334873
72	0.334131
72.1	0.333391
72.2	0.33265
72.3	0.33191
72.4	0.331173
72.5	0.330435
72.6	0.329695
72.7	0.328955
72.8	0.328215
72.9	0.32748
73	0.32675
73.1	0.326021
73.2	0.325293
73.3	0.324562
73.4	0.323833
73.5	0.323109
73.6	0.322387
73.7	0.321669
73.8	0.320948
73.9	0.320225
74	0.319505
74.1	0.31879
74.2	0.318078
74.3	0.317363
74.4	0.316642
74.5	0.315925
74.6	0.315213
74.7	0.314505
74.8	0.313795
74.9	0.313085
75	0.312381
75.1	0.311679
75.2	0.310979
75.3	0.310279
75.4	0.30958
75.5	0.30888
75.6	0.308175
75.7	0.307467
75.8	0.306762
75.9	0.306056
76	0.305349
76.1	0.304647
76.2	0.303949
76.3	0.303252
76.4	0.302557
76.5	0.301857
76.6	0.301155
76.7	0.300452
76.8	0.299755
76.9	0.299062
77	0.298373
77.1	0.297688
77.2	0.297007
77.3	0.296335
77.4	0.29566
77.5	0.294985
77.6	0.294315
77.7	0.293644
77.8	0.292971
77.9	0.292302
78	0.29164
78.1	0.290975
78.2	0.290309
78.3	0.289643
78.4	0.288978
78.5	0.288315
78.6	0.287653
78.7	0.286988
78.8	0.286322
78.9	0.285661
79	0.285005
79.1	0.284356
79.2	0.283709
79.3	0.283067
79.4	0.282425
79.5	0.281785
79.6	0.281146
79.7	0.280508
79.8	0.279872
79.9	0.279233
80	0.278598
80.1	0.277969
80.2	0.277347
80.3	0.276728
80.4	0.276113
80.5	0.275498
80.6	0.274882
80.7	0.274267
80.8	0.27365
80.9	0.273034
81	0.272423
81.1	0.271817
81.2	0.271216
81.3	0.270612
81.4	0.27001
81.5	0.269408
81.6	0.268809
81.7	0.268212
81.8	0.267616
81.9	0.267021
82	0.266429
82.1	0.265834
82.2	0.265235
82.3	0.264641
82.4	0.264055
82.5	0.263473
82.6	0.262895
82.7	0.262318
82.8	0.261744
82.9	0.261179
83	0.260621
83.1	0.26007
83.2	0.259523
83.3	0.258972
83.4	0.258414
83.5	0.257848
83.6	0.257279
83.7	0.256707
83.8	0.256135
83.9	0.255563
84	0.25499
84.1	0.254412
84.2	0.253832
84.3	0.253249
84.4	0.252666
84.5	0.252088
84.6	0.25151
84.7	0.250931
84.8	0.250355
84.9	0.249782
85	0.249216
85.1	0.248653
85.2	0.248091
85.3	0.247529
85.4	0.246969
85.5	0.246408
85.6	0.245844
85.7	0.245283
85.8	0.244719
85.9	0.244151
86	0.24358
86.1	0.243011
86.2	0.242448
86.3	0.241888
86.4	0.241331
86.5	0.240772
86.6	0.240211
86.7	0.23965
86.8	0.239082
86.9	0.238515
87	0.23795
87.1	0.237385
87.2	0.236822
87.3	0.236263
87.4	0.235709
87.5	0.235157
87.6	0.234601
87.7	0.234043
87.8	0.233483
87.9	0.232922
88	0.232366
88.1	0.231811
88.2	0.231257
88.3	0.230706
88.4	0.23016
88.5	0.229617
88.6	0.229072
88.7	0.228526
88.8	0.227979
88.9	0.227432
89	0.226889
89.1	0.226351
89.2	0.225818
89.3	0.225289
89.4	0.224762
89.5	0.224239
89.6	0.223717
89.7	0.223202
89.8	0.222693
89.9	0.222182
90	0.221669
90.1	0.221158
90.2	0.22065
90.3	0.220142
90.4	0.219636
90.5	0.219134
90.6	0.218631
90.7	0.218128
90.8	0.21763
90.9	0.217131
91	0.216629
91.1	0.216132
91.2	0.215641
91.3	0.215155
91.4	0.214672
91.5	0.214191
91.6	0.213713
91.7	0.213243
91.8	0.212776
91.9	0.212314
92	0.211856
92.1	0.211403
92.2	0.210954
92.3	0.21051
92.4	0.210068
92.5	0.209632
92.6	0.209195
92.7	0.208763
92.8	0.208328
92.9	0.207892
93	0.207458
93.1	0.207025
93.2	0.20659
93.3	0.206156
93.4	0.205721
93.5	0.205281
93.6	0.204839
93.7	0.204398
93.8	0.20396
93.9	0.203525
94	0.203094
94.1	0.20267
94.2	0.20225
94.3	0.201831
94.4	0.201413
94.5	0.200991
94.6	0.200568
94.7	0.200148
94.8	0.199728
94.9	0.19931
95	0.198896
95.1	0.198488
95.2	0.198085
95.3	0.197684
95.4	0.197286
95.5	0.196888
95.6	0.196484
95.7	0.196072
95.8	0.195661
95.9	0.195247
96	0.194831
96.1	0.194417
96.2	0.194002
96.3	0.193592
96.4	0.193185
96.5	0.192779
96.6	0.192378
96.7	0.191983
96.8	0.19159
96.9	0.191192
97	0.190797
97.1	0.190403
97.2	0.190009
97.3	0.189615
97.4	0.189223
97.5	0.188831
97.6	0.188438
97.7	0.188045
97.8	0.18765
97.9	0.187257
98	0.186866
98.1	0.186469
98.2	0.186067
98.3	0.185663
98.4	0.185263
98.5	0.184864
98.6	0.184463
98.7	0.184064
98.8	0.183662
98.9	0.183262
99	0.182862
99.1	0.18246
99.2	0.182063
99.3	0.181668
99.4	0.181276
99.5	0.180886
99.6	0.180497
99.7	0.18011
99.8	0.179723
99.9	0.179335
100	0.178952
100.1	0.178571
100.2	0.178193
100.3	0.177817
100.4	0.177442
100.5	0.177068
100.6	0.176695
100.7	0.17632
100.8	0.175944
100.9	0.17557
101	0.175196
101.1	0.174825
101.2	0.174451
101.3	0.174072
101.4	0.173693
101.5	0.173311
101.6	0.172927
101.7	0.172542
101.8	0.17216
101.9	0.171781
102	0.171398
102.1	0.171013
102.2	0.170627
102.3	0.170236
102.4	0.169842
102.5	0.169443
102.6	0.169045
102.7	0.16865
102.8	0.168256
102.9	0.167866
103	0.167477
103.1	0.167091
103.2	0.166708
103.3	0.166328
103.4	0.165952
103.5	0.165575
103.6	0.165193
103.7	0.164812
103.8	0.16443
103.9	0.164047
104	0.163661
104.1	0.163273
104.2	0.162888
104.3	0.162503
104.4	0.16212
104.5	0.161739
104.6	0.16136
104.7	0.160983
104.8	0.16061
104.9	0.160242
105	0.159873
105.1	0.159495
105.2	0.159116
105.3	0.158737
105.4	0.158363
105.5	0.157992
105.6	0.157614
105.7	0.157231
105.8	0.156845
105.9	0.156465
106	0.156093
106.1	0.15573
106.2	0.15537
106.3	0.155013
106.4	0.154657
106.5	0.154299
106.6	0.15394
106.7	0.153578
106.8	0.153218
106.9	0.152862
107	0.152505
107.1	0.152153
107.2	0.151802
107.3	0.151451
107.4	0.151102
107.5	0.15076
107.6	0.150426
107.7	0.150096
107.8	0.149771
107.9	0.149448
108	0.149121
108.1	0.148787
108.2	0.148449
108.3	0.148112
108.4	0.147774
108.5	0.147431
108.6	0.147084
108.7	0.146737
108.8	0.14639
108.9	0.146041
109	0.145694
109.1	0.145346
109.2	0.145
109.3	0.144653
109.4	0.144305
109.5	0.143959
109.6	0.14362
109.7	0.143279
109.8	0.142935
109.9	0.142587
110	0.142233
110.1	0.141875
110.2	0.141514
110.3	0.141148
110.4	0.140783
110.5	0.140419
110.6	0.140056
110.7	0.139695
110.8	0.139339
110.9	0.13899
111	0.138643
111.1	0.138299
111.2	0.137956
111.3	0.137613
111.4	0.137271
111.5	0.136931
111.6	0.136592
111.7	0.136258
111.8	0.135925
111.9	0.13559
112	0.135257
112.1	0.134928
112.2	0.134597
112.3	0.134264
112.4	0.133925
112.5	0.133587
112.6	0.133247
112.7	0.132911
112.8	0.132577
112.9	0.132247
113	0.131912
113.1	0.131583
113.2	0.131261
113.3	0.130943
113.4	0.130626
113.5	0.130309
113.6	0.129991
113.7	0.12967
113.8	0.129347
113.9	0.12902
114	0.128694
114.1	0.128367
114.2	0.128044
114.3	0.127725
114.4	0.127412
114.5	0.127101
114.6	0.126795
114.7	0.126487
114.8	0.126178
114.9	0.125868
115	0.125561
115.1	0.125257
115.2	0.124958
115.3	0.124663
115.4	0.124376
115.5	0.124089
115.6	0.123802
115.7	0.123519
115.8	0.123238
115.9	0.122958
116	0.122679
116.1	0.122397
116.2	0.122116
116.3	0.121839
116.4	0.121562
116.5	0.121284
116.6	0.121009
116.7	0.120737
116.8	0.120466
116.9	0.120196
117	0.119924
117.1	0.119653
117.2	0.119382
117.3	0.119112
117.4	0.118843
117.5	0.118578
117.6	0.118315
117.7	0.118052
117.8	0.117791
117.9	0.117529
118	0.117266
118.1	0.117008
118.2	0.116748
118.3	0.116483
118.4	0.116216
118.5	0.115952
118.6	0.115687
118.7	0.115423
118.8	0.115159
118.9	0.114897
119	0.114637
119.1	0.114378
119.2	0.114121
119.3	0.113864
119.4	0.113607
119.5	0.113347
119.6	0.113082
119.7	0.112815
119.8	0.112552
119.9	0.112287
120	0.112022
120.1	0.111755
120.2	0.111487
120.3	0.111222
120.4	0.110966
120.5	0.110716
120.6	0.110471
120.7	0.110231
120.8	0.109994
120.9	0.109756
121	0.109513
121.1	0.109269
121.2	0.10902
121.3	0.108771
121.4	0.108523
121.5	0.108273
121.6	0.108017
121.7	0.107757
121.8	0.107496
121.9	0.107227
122	0.106955
122.1	0.106684
122.2	0.106412
122.3	0.10614
122.4	0.105874
122.5	0.105611
122.6	0.105354
122.7	0.105097
122.8	0.104837
122.9	0.10458
123	0.104322
123.1	0.104061
123.2	0.103797
123.3	0.10353
123.4	0.103265
123.5	0.103001
123.6	0.102736
123.7	0.102476
123.8	0.10222
123.9	0.101969
124	0.101721
124.1	0.101474
124.2	0.101226
124.3	0.100979
124.4	0.100734
124.5	0.100496
124.6	0.100257
124.7	0.10002
124.8	0.0997825
124.9	0.0995412
125	0.0992928
125.1	0.0990449
125.2	0.0987988
125.3	0.0985538
125.4	0.0983066
125.5	0.0980596
125.6	0.0978082
125.7	0.0975542
125.8	0.0973018
125.9	0.0970543
126	0.0968101
126.1	0.0965697
126.2	0.0963291
126.3	0.0960872
126.4	0.0958464
126.5	0.0956019
126.6	0.0953507
126.7	0.0950971
126.8	0.0948393
126.9	0.0945751
127	0.0943092
127.1	0.0940441
127.2	0.0937824
127.3	0.0935198
127.4	0.0932565
127.5	0.0929982
127.6	0.092742
127.7	0.0924928
127.8	0.092242
127.9	0.0919908
128	0.09174
128.1	0.0914904
128.2	0.0912498
128.3	0.09102
128.4	0.0907935
128.5	0.0905696
128.6	0.0903487
128.7	0.0901306
128.8	0.0899166
128.9	0.089703
129	0.0894912
129.1	0.0892803
129.2	0.0890691
129.3	0.0888603
129.4	0.088652
129.5	0.0884477
129.6	0.0882491
129.7	0.0880529
129.8	0.0878579
129.9	0.0876628
130	0.0874694
130.1	0.0872761
130.2	0.0870821
130.3	0.0868887
130.4	0.0866965
130.5	0.0865024
130.6	0.0863063
130.7	0.0861108
130.8	0.0859158
130.9	0.085722
131	0.0855286
131.1	0.0853369
131.2	0.0851423
131.3	0.0849488
131.4	0.0847576
131.5	0.0845705
131.6	0.0843907
131.7	0.0842131
131.8	0.0840349
131.9	0.0838576
132	0.083685
132.1	0.0835127
132.2	0.0833393
132.3	0.0831668
132.4	0.0829975
132.5	0.0828299
132.6	0.0826629
132.7	0.0824969
132.8	0.082336
132.9	0.0821762
133	0.0820126
133.1	0.0818493
133.2	0.0816929
133.3	0.0815393
133.4	0.0813875
133.5	0.0812399
133.6	0.0810941
133.7	0.0809462
133.8	0.0807939
133.9	0.0806438
134	0.0805009
134.1	0.080364
134.2	0.080232
134.3	0.0801037
134.4	0.0799799
134.5	0.0798575
134.6	0.0797333
134.7	0.0796069
134.8	0.0794785
134.9	0.0793471
135	0.0792116
135.1	0.0790745
135.2	0.0789327
135.3	0.0787905
135.4	0.0786463
135.5	0.0785009
135.6	0.0783533
135.7	0.07821
135.8	0.0780701
135.9	0.0779332
136	0.0777969
136.1	0.077661
136.2	0.0775291
136.3	0.0773959
136.4	0.0772602
136.5	0.0771253
136.6	0.0769885
136.7	0.0768495
136.8	0.0767098
136.9	0.0765751
137	0.0764435
137.1	0.0763128
137.2	0.0761823
137.3	0.0760536
137.4	0.0759276
137.5	0.0758031
137.6	0.0756772
137.7	0.0755497
137.8	0.0754174
137.9	0.0752859
138	0.0751531
138.1	0.0750155
138.2	0.0748692
138.3	0.0747189
138.4	0.0745676
138.5	0.0744146
138.6	0.0742573
138.7	0.0740988
138.8	0.0739391
138.9	0.0737753
139	0.0736076
139.1	0.073441
139.2	0.0732811
139.3	0.0731244
139.4	0.0729693
139.5	0.0728151
139.6	0.072662
139.7	0.0725063
139.8	0.072353
139.9	0.0721998
140	0.0720475
140.1	0.0718941
140.2	0.0717404
140.3	0.071589
140.4	0.0714457
140.5	0.0713067
140.6	0.0711743
140.7	0.0710461
140.8	0.07092
140.9	0.0707945
141	0.0706682
141.1	0.070543
141.2	0.0704191
141.3	0.0703008
141.4	0.0701921
141.5	0.0700877
141.6	0.0699848
141.7	0.0698876
141.8	0.0697954
141.9	0.0697028
142	0.0696158
142.1	0.0695303
142.2	0.0694455
142.3	0.06936
142.4	0.0692747
142.5	0.0691928
142.6	0.0691134
142.7	0.0690353
142.8	0.0689581
142.9	0.0688794
143	0.0687949
143.1	0.0687056
143.2	0.0686144
143.3	0.0685209
143.4	0.0684248
143.5	0.0683316
143.6	0.0682392
143.7	0.0681445
