LagTime	Correlation

0	2.2552
0.1	2.25019
0.2	2.2427
0.3	2.23464
0.4	2.22647
0.5	2.21833
0.6	2.21024
0.7	2.20221
0.8	2.19424
0.9	2.18633
1	2.17848
1.1	2.1707
1.2	2.16296
1.3	2.15527
1.4	2.14764
1.5	2.14005
1.6	2.13252
1.7	2.12505
1.8	2.11764
1.9	2.11027
2	2.10296
2.1	2.0957
2.2	2.08848
2.3	2.08132
2.4	2.0742
2.5	2.06714
2.6	2.06011
2.7	2.05314
2.8	2.0462
2.9	2.03931
3	2.03248
3.1	2.02569
3.2	2.01894
3.3	2.01225
3.4	2.00561
3.5	1.99901
3.6	1.99245
3.7	1.98594
3.8	1.97946
3.9	1.97303
4	1.96663
4.1	1.96027
4.2	1.95395
4.3	1.94766
4.4	1.94141
4.5	1.9352
4.6	1.92902
4.7	1.92289
4.8	1.91679
4.9	1.91074
5	1.90474
5.1	1.89876
5.2	1.89283
5.3	1.88693
5.4	1.88106
5.5	1.87523
5.6	1.86944
5.7	1.86368
5.8	1.85796
5.9	1.85228
6	1.84663
6.1	1.84102
6.2	1.83545
6.3	1.82991
6.4	1.82439
6.5	1.81891
6.6	1.81345
6.7	1.80803
6.8	1.80265
6.9	1.79729
7	1.79197
7.1	1.78668
7.2	1.78142
7.3	1.77618
7.4	1.77097
7.5	1.7658
7.6	1.76065
7.7	1.75554
7.8	1.75046
7.9	1.7454
8	1.74037
8.1	1.73535
8.2	1.73036
8.3	1.72539
8.4	1.72044
8.5	1.71552
8.6	1.71061
8.7	1.70573
8.8	1.70086
8.9	1.69603
9	1.69121
9.1	1.68643
9.2	1.68167
9.3	1.67694
9.4	1.67223
9.5	1.66754
9.6	1.66288
9.7	1.65824
9.8	1.65363
9.9	1.64904
10	1.64448
10.1	1.63994
10.2	1.63542
10.3	1.63092
10.4	1.62645
10.5	1.622
10.6	1.61757
10.7	1.61316
10.8	1.60878
10.9	1.60441
11	1.60007
11.1	1.59575
11.2	1.59144
11.3	1.58715
11.4	1.58289
11.5	1.57865
11.6	1.57443
11.7	1.57024
11.8	1.56607
11.9	1.56192
12	1.55778
12.1	1.55367
12.2	1.54957
12.3	1.54549
12.4	1.54142
12.5	1.53737
12.6	1.53333
12.7	1.52932
12.8	1.52533
12.9	1.52135
13	1.51739
13.1	1.51345
13.2	1.50952
13.3	1.50561
13.4	1.50171
13.5	1.49783
13.6	1.49398
13.7	1.49014
13.8	1.48632
13.9	1.48252
14	1.47873
14.1	1.47497
14.2	1.47123
14.3	1.46751
14.4	1.4638
14.5	1.46011
14.6	1.45643
14.7	1.45277
14.8	1.44912
14.9	1.44548
15	1.44187
15.1	1.43826
15.2	1.43467
15.3	1.43109
15.4	1.42752
15.5	1.42396
15.6	1.42041
15.7	1.41687
15.8	1.41335
15.9	1.40984
16	1.40634
16.1	1.40286
16.2	1.39939
16.3	1.39593
16.4	1.39249
16.5	1.38906
16.6	1.38564
16.7	1.38224
16.8	1.37886
16.9	1.3755
17	1.37215
17.1	1.36882
17.2	1.36551
17.3	1.3622
17.4	1.35891
17.5	1.35563
17.6	1.35236
17.7	1.34911
17.8	1.34588
17.9	1.34265
18	1.33943
18.1	1.33622
18.2	1.33302
18.3	1.32983
18.4	1.32665
18.5	1.32349
18.6	1.32034
18.7	1.31719
18.8	1.31406
18.9	1.31092
19	1.30779
19.1	1.30466
19.2	1.30153
19.3	1.29841
19.4	1.2953
19.5	1.2922
19.6	1.28912
19.7	1.28604
19.8	1.28298
19.9	1.27993
20	1.27689
20.1	1.27386
20.2	1.27083
20.3	1.2678
20.4	1.26478
20.5	1.26178
20.6	1.25879
20.7	1.25581
20.8	1.25284
20.9	1.24989
21	1.24695
21.1	1.24401
21.2	1.24109
21.3	1.23817
21.4	1.23527
21.5	1.23237
21.6	1.22949
21.7	1.22662
21.8	1.22376
21.9	1.22091
22	1.21808
22.1	1.21525
22.2	1.21244
22.3	1.20964
22.4	1.20686
22.5	1.20408
22.6	1.20131
22.7	1.19855
22.8	1.1958
22.9	1.19307
23	1.19035
23.1	1.18765
23.2	1.18496
23.3	1.18228
23.4	1.17961
23.5	1.17693
23.6	1.17427
23.7	1.17161
23.8	1.16896
23.9	1.16633
24	1.1637
24.1	1.16107
24.2	1.15846
24.3	1.15584
24.4	1.15324
24.5	1.15064
24.6	1.14804
24.7	1.14546
24.8	1.14289
24.9	1.14033
25	1.13778
25.1	1.13524
25.2	1.13272
25.3	1.13021
25.4	1.1277
25.5	1.12521
25.6	1.12273
25.7	1.12025
25.8	1.11778
25.9	1.11532
26	1.11286
26.1	1.11041
26.2	1.10797
26.3	1.10555
26.4	1.10313
26.5	1.10071
26.6	1.09831
26.7	1.09591
26.8	1.09353
26.9	1.09114
27	1.08876
27.1	1.08639
27.2	1.08403
27.3	1.08168
27.4	1.07934
27.5	1.077
27.6	1.07467
27.7	1.07235
27.8	1.07004
27.9	1.06773
28	1.06543
28.1	1.06314
28.2	1.06087
28.3	1.05861
28.4	1.05635
28.5	1.05411
28.6	1.05187
28.7	1.04964
28.8	1.04741
28.9	1.04519
29	1.04298
29.1	1.04077
29.2	1.03856
29.3	1.03635
29.4	1.03416
29.5	1.03197
29.6	1.02979
29.7	1.02761
29.8	1.02544
29.9	1.02327
30	1.0211
30.1	1.01894
30.2	1.01678
30.3	1.01463
30.4	1.01248
30.5	1.01034
30.6	1.0082
30.7	1.00607
30.8	1.00394
30.9	1.00183
31	0.999718
31.1	0.997613
31.2	0.995511
31.3	0.993418
31.4	0.991331
31.5	0.989247
31.6	0.987164
31.7	0.985084
31.8	0.983006
31.9	0.980933
32	0.978868
32.1	0.976815
32.2	0.974765
32.3	0.972714
32.4	0.970668
32.5	0.968631
32.6	0.9666
32.7	0.964573
32.8	0.962551
32.9	0.960532
33	0.958518
33.1	0.956511
33.2	0.954506
33.3	0.952505
33.4	0.950504
33.5	0.948509
33.6	0.946524
33.7	0.944543
33.8	0.94257
33.9	0.940595
34	0.938616
34.1	0.936641
34.2	0.934667
34.3	0.932694
34.4	0.93072
34.5	0.928748
34.6	0.92678
34.7	0.92481
34.8	0.922841
34.9	0.920876
35	0.918913
35.1	0.916949
35.2	0.914986
35.3	0.91303
35.4	0.911079
35.5	0.909135
35.6	0.907197
35.7	0.905265
35.8	0.903338
35.9	0.901418
36	0.899506
36.1	0.897604
36.2	0.895717
36.3	0.893844
36.4	0.891982
36.5	0.890123
36.6	0.888265
36.7	0.886408
36.8	0.884556
36.9	0.88271
37	0.880864
37.1	0.879019
37.2	0.877176
37.3	0.875338
37.4	0.873503
37.5	0.871669
37.6	0.86984
37.7	0.86802
37.8	0.866209
37.9	0.864403
38	0.862601
38.1	0.860799
38.2	0.859005
38.3	0.857217
38.4	0.855433
38.5	0.853656
38.6	0.851889
38.7	0.850134
38.8	0.848386
38.9	0.846643
39	0.844906
39.1	0.84317
39.2	0.841438
39.3	0.839707
39.4	0.837974
39.5	0.836239
39.6	0.834502
39.7	0.832764
39.8	0.831032
39.9	0.829309
40	0.82759
40.1	0.825873
40.2	0.824157
40.3	0.822442
40.4	0.820725
40.5	0.819006
40.6	0.817289
40.7	0.815572
40.8	0.813853
40.9	0.812135
41	0.810421
41.1	0.80871
41.2	0.807
41.3	0.80529
41.4	0.80358
41.5	0.801875
41.6	0.800179
41.7	0.798483
41.8	0.796784
41.9	0.795087
42	0.793394
42.1	0.791707
42.2	0.790024
42.3	0.788342
42.4	0.786664
42.5	0.784993
42.6	0.783326
42.7	0.781666
42.8	0.780013
42.9	0.778367
43	0.776721
43.1	0.775077
43.2	0.773437
43.3	0.771804
43.4	0.77018
43.5	0.768561
43.6	0.766949
43.7	0.765341
43.8	0.76374
43.9	0.762141
44	0.760545
44.1	0.758955
44.2	0.757371
44.3	0.755794
44.4	0.754226
44.5	0.752667
44.6	0.751116
44.7	0.749569
44.8	0.748022
44.9	0.746478
45	0.744934
45.1	0.743397
45.2	0.741867
45.3	0.740345
45.4	0.738826
45.5	0.737306
45.6	0.735784
45.7	0.734259
45.8	0.732734
45.9	0.731211
46	0.72969
46.1	0.728173
46.2	0.726658
46.3	0.725145
46.4	0.723633
46.5	0.722124
46.6	0.720612
46.7	0.719106
46.8	0.717606
46.9	0.71611
47	0.714616
47.1	0.713125
47.2	0.711639
47.3	0.710154
47.4	0.708667
47.5	0.707182
47.6	0.705699
47.7	0.704218
47.8	0.702739
47.9	0.701264
48	0.699786
48.1	0.698313
48.2	0.696842
48.3	0.695371
48.4	0.693897
48.5	0.692423
48.6	0.690948
48.7	0.689475
48.8	0.688004
48.9	0.686533
49	0.685067
49.1	0.683601
49.2	0.682137
49.3	0.680676
49.4	0.679225
49.5	0.677779
49.6	0.676338
49.7	0.674902
49.8	0.673472
49.9	0.672047
50	0.670621
50.1	0.669199
50.2	0.667783
50.3	0.66637
50.4	0.66496
50.5	0.663551
50.6	0.662144
50.7	0.660738
50.8	0.65933
50.9	0.657931
51	0.656539
51.1	0.655159
51.2	0.653787
51.3	0.652422
51.4	0.651061
51.5	0.649702
51.6	0.648346
51.7	0.646997
51.8	0.645656
51.9	0.644314
52	0.642976
52.1	0.641638
52.2	0.640303
52.3	0.63897
52.4	0.637637
52.5	0.636306
52.6	0.634976
52.7	0.633649
52.8	0.632322
52.9	0.630997
53	0.629672
53.1	0.62835
53.2	0.62703
53.3	0.625709
53.4	0.624388
53.5	0.623066
53.6	0.621743
53.7	0.620422
53.8	0.619099
53.9	0.617779
54	0.616454
54.1	0.615129
54.2	0.613804
54.3	0.612479
54.4	0.611157
54.5	0.609842
54.6	0.608525
54.7	0.607206
54.8	0.605884
54.9	0.604562
55	0.603242
55.1	0.601926
55.2	0.600613
55.3	0.599302
55.4	0.597992
55.5	0.596685
55.6	0.59538
55.7	0.594083
55.8	0.592787
55.9	0.59149
56	0.590194
56.1	0.588899
56.2	0.587608
56.3	0.586316
56.4	0.585021
56.5	0.583729
56.6	0.582438
56.7	0.581145
56.8	0.579855
56.9	0.578566
57	0.577277
57.1	0.575992
57.2	0.574712
57.3	0.573434
57.4	0.572163
57.5	0.570894
57.6	0.569623
57.7	0.568348
57.8	0.567072
57.9	0.565799
58	0.564528
58.1	0.563264
58.2	0.562
58.3	0.560733
58.4	0.559467
58.5	0.558205
58.6	0.556945
58.7	0.555693
58.8	0.554449
58.9	0.553206
59	0.551968
59.1	0.550728
59.2	0.549494
59.3	0.548262
59.4	0.547027
59.5	0.545796
59.6	0.544566
59.7	0.543343
59.8	0.54213
59.9	0.540921
60	0.539714
60.1	0.538513
60.2	0.537312
60.3	0.536116
60.4	0.534918
60.5	0.533725
60.6	0.532537
60.7	0.531356
60.8	0.53018
60.9	0.529013
61	0.527852
61.1	0.526692
61.2	0.525529
61.3	0.524373
61.4	0.523223
61.5	0.52208
61.6	0.520944
61.7	0.519813
61.8	0.518689
61.9	0.517573
62	0.516463
62.1	0.515353
62.2	0.51425
62.3	0.513149
62.4	0.51205
62.5	0.510952
62.6	0.509858
62.7	0.508764
62.8	0.507671
62.9	0.506577
63	0.505486
63.1	0.504395
63.2	0.503308
63.3	0.502223
63.4	0.501141
63.5	0.500056
63.6	0.498967
63.7	0.497874
63.8	0.496782
63.9	0.495694
64	0.494612
64.1	0.493532
64.2	0.492458
64.3	0.491387
64.4	0.490318
64.5	0.489252
64.6	0.488184
64.7	0.487115
64.8	0.486047
64.9	0.484979
65	0.483909
65.1	0.482838
65.2	0.481771
65.3	0.480707
65.4	0.479645
65.5	0.478584
65.6	0.477525
65.7	0.476467
65.8	0.475413
65.9	0.474362
66	0.473319
66.1	0.472279
66.2	0.471241
66.3	0.470199
66.4	0.469153
66.5	0.468108
66.6	0.467062
66.7	0.466019
66.8	0.464981
66.9	0.463947
67	0.462913
67.1	0.461879
67.2	0.460841
67.3	0.459803
67.4	0.458767
67.5	0.457735
67.6	0.456706
67.7	0.455678
67.8	0.454655
67.9	0.453641
68	0.452636
68.1	0.45163
68.2	0.45062
68.3	0.44961
68.4	0.448599
68.5	0.447586
68.6	0.446573
68.7	0.445567
68.8	0.44456
68.9	0.443557
69	0.442561
69.1	0.441572
69.2	0.440586
69.3	0.439608
69.4	0.438637
69.5	0.43767
69.6	0.436706
69.7	0.435744
69.8	0.434777
69.9	0.433813
70	0.432855
70.1	0.4319
70.2	0.430941
70.3	0.42998
70.4	0.42902
70.5	0.428064
70.6	0.427115
70.7	0.426171
70.8	0.425229
70.9	0.424288
71	0.423354
71.1	0.422421
71.2	0.421489
71.3	0.420557
71.4	0.419627
71.5	0.418699
71.6	0.417776
71.7	0.416859
71.8	0.415947
71.9	0.415046
72	0.414151
72.1	0.413265
72.2	0.412388
72.3	0.411517
72.4	0.410651
72.5	0.409788
72.6	0.408927
72.7	0.40807
72.8	0.407216
72.9	0.406368
73	0.40552
73.1	0.404675
73.2	0.403831
73.3	0.402989
73.4	0.402154
73.5	0.401322
73.6	0.40049
73.7	0.399655
73.8	0.398818
73.9	0.397983
74	0.397151
74.1	0.396311
74.2	0.395469
74.3	0.394627
74.4	0.393788
74.5	0.392951
74.6	0.392117
74.7	0.391289
74.8	0.390465
74.9	0.389651
75	0.388844
75.1	0.388036
75.2	0.387234
75.3	0.386433
75.4	0.385637
75.5	0.384847
75.6	0.384058
75.7	0.383266
75.8	0.382474
75.9	0.381683
76	0.380893
76.1	0.380107
76.2	0.379317
76.3	0.378526
76.4	0.377736
76.5	0.376949
76.6	0.376163
76.7	0.375377
76.8	0.374595
76.9	0.373812
77	0.373035
77.1	0.372261
77.2	0.371489
77.3	0.370722
77.4	0.369958
77.5	0.369199
77.6	0.368442
77.7	0.367688
77.8	0.366929
77.9	0.366168
78	0.365405
78.1	0.364648
78.2	0.363894
78.3	0.363142
78.4	0.362385
78.5	0.361625
78.6	0.360866
78.7	0.360108
78.8	0.35935
78.9	0.358587
79	0.357821
79.1	0.35705
79.2	0.356277
79.3	0.355495
79.4	0.354709
79.5	0.353922
79.6	0.353135
79.7	0.352352
79.8	0.351571
79.9	0.350792
80	0.350014
80.1	0.349244
80.2	0.348485
80.3	0.347726
80.4	0.346964
80.5	0.346204
80.6	0.345445
80.7	0.344687
80.8	0.343931
80.9	0.343179
81	0.342429
81.1	0.341679
81.2	0.340932
81.3	0.340184
81.4	0.339435
81.5	0.338686
81.6	0.337939
81.7	0.337188
81.8	0.336441
81.9	0.335697
82	0.334954
82.1	0.334218
82.2	0.333488
82.3	0.332761
82.4	0.332043
82.5	0.331329
82.6	0.330614
82.7	0.3299
82.8	0.329182
82.9	0.328463
83	0.327742
83.1	0.327022
83.2	0.326303
83.3	0.325586
83.4	0.324873
83.5	0.324155
83.6	0.323438
83.7	0.322722
83.8	0.322005
83.9	0.321291
84	0.320577
84.1	0.319858
84.2	0.31914
84.3	0.318427
84.4	0.317714
84.5	0.316997
84.6	0.316278
84.7	0.315559
84.8	0.314839
84.9	0.314119
85	0.313402
85.1	0.312692
85.2	0.311985
85.3	0.311284
85.4	0.310589
85.5	0.309888
85.6	0.309191
85.7	0.308496
85.8	0.307808
85.9	0.307125
86	0.306441
86.1	0.305756
86.2	0.305069
86.3	0.304381
86.4	0.303693
86.5	0.303004
86.6	0.302321
86.7	0.301643
86.8	0.300965
86.9	0.300279
87	0.299592
87.1	0.298903
87.2	0.298218
87.3	0.297541
87.4	0.296867
87.5	0.296191
87.6	0.295514
87.7	0.294839
87.8	0.294164
87.9	0.293493
88	0.292825
88.1	0.292164
88.2	0.291505
88.3	0.290846
88.4	0.29019
88.5	0.289533
88.6	0.288873
88.7	0.28821
88.8	0.287551
88.9	0.286893
89	0.286242
89.1	0.285595
89.2	0.284949
89.3	0.284306
89.4	0.283669
89.5	0.283035
89.6	0.282401
89.7	0.281764
89.8	0.281128
89.9	0.28049
90	0.279849
90.1	0.279213
90.2	0.278582
90.3	0.277958
90.4	0.277337
90.5	0.27672
90.6	0.276104
90.7	0.275487
90.8	0.274868
90.9	0.274253
91	0.273644
91.1	0.273036
91.2	0.272421
91.3	0.271804
91.4	0.271188
91.5	0.270575
91.6	0.269962
91.7	0.26935
91.8	0.268742
91.9	0.268135
92	0.267524
92.1	0.266912
92.2	0.266296
92.3	0.265678
92.4	0.265065
92.5	0.264452
92.6	0.263842
92.7	0.263231
92.8	0.262618
92.9	0.261999
93	0.26138
93.1	0.260762
93.2	0.260143
93.3	0.259524
93.4	0.258906
93.5	0.258286
93.6	0.257664
93.7	0.257043
93.8	0.256422
93.9	0.255797
94	0.255174
94.1	0.254551
94.2	0.253934
94.3	0.253317
94.4	0.252701
94.5	0.252086
94.6	0.251477
94.7	0.250867
94.8	0.250259
94.9	0.249653
95	0.249049
95.1	0.248449
95.2	0.247845
95.3	0.247241
95.4	0.246638
95.5	0.246038
95.6	0.245436
95.7	0.244836
95.8	0.244237
95.9	0.243637
96	0.243037
96.1	0.242436
96.2	0.241835
96.3	0.241234
96.4	0.24064
96.5	0.240053
96.6	0.239472
96.7	0.238892
96.8	0.23831
96.9	0.237732
97	0.23716
97.1	0.236588
97.2	0.236014
97.3	0.235438
97.4	0.234859
97.5	0.234279
97.6	0.233698
97.7	0.233114
97.8	0.23253
97.9	0.231942
98	0.231355
98.1	0.230768
98.2	0.230179
98.3	0.229587
98.4	0.228994
98.5	0.228398
98.6	0.227799
98.7	0.227201
98.8	0.226608
98.9	0.226016
99	0.225431
99.1	0.224851
99.2	0.224273
99.3	0.223695
99.4	0.223116
99.5	0.222535
99.6	0.221955
99.7	0.221384
99.8	0.22082
99.9	0.220252
100	0.219683
100.1	0.219118
100.2	0.218559
100.3	0.218003
100.4	0.217449
100.5	0.216896
100.6	0.216346
100.7	0.2158
100.8	0.215258
100.9	0.214715
101	0.21417
101.1	0.213625
101.2	0.213078
101.3	0.212531
101.4	0.211987
101.5	0.21144
101.6	0.210891
101.7	0.210345
101.8	0.2098
101.9	0.209257
102	0.208714
102.1	0.208171
102.2	0.207635
102.3	0.207104
102.4	0.206573
102.5	0.206041
102.6	0.205509
102.7	0.204982
102.8	0.204458
102.9	0.203937
103	0.203419
103.1	0.202906
103.2	0.202397
103.3	0.201894
103.4	0.201396
103.5	0.200903
103.6	0.200415
103.7	0.199937
103.8	0.199463
103.9	0.198987
104	0.198509
104.1	0.198028
104.2	0.197545
104.3	0.197061
104.4	0.196578
104.5	0.196097
104.6	0.195621
104.7	0.19514
104.8	0.194659
104.9	0.194181
105	0.193703
105.1	0.193223
105.2	0.192738
105.3	0.192249
105.4	0.191761
105.5	0.191273
105.6	0.190791
105.7	0.190317
105.8	0.189847
105.9	0.189377
106	0.188908
106.1	0.188438
106.2	0.187967
106.3	0.187494
106.4	0.187019
106.5	0.186546
106.6	0.186072
106.7	0.185598
106.8	0.185126
106.9	0.184659
107	0.184193
107.1	0.183732
107.2	0.18327
107.3	0.182805
107.4	0.182337
107.5	0.181867
107.6	0.181399
107.7	0.180936
107.8	0.180473
107.9	0.180012
108	0.179551
108.1	0.179089
108.2	0.178629
108.3	0.178172
108.4	0.177721
108.5	0.177274
108.6	0.176827
108.7	0.176375
108.8	0.175915
108.9	0.175455
109	0.174996
109.1	0.174536
109.2	0.174071
109.3	0.173601
109.4	0.173128
109.5	0.172659
109.6	0.17219
109.7	0.17172
109.8	0.171252
109.9	0.170785
110	0.170317
110.1	0.169848
110.2	0.16938
110.3	0.168907
110.4	0.16843
110.5	0.167955
110.6	0.167483
110.7	0.167007
110.8	0.166532
110.9	0.16606
111	0.165591
111.1	0.165122
111.2	0.164656
111.3	0.164194
111.4	0.163733
111.5	0.163275
111.6	0.162817
111.7	0.162359
111.8	0.161902
111.9	0.161446
112	0.160993
112.1	0.160542
112.2	0.160093
112.3	0.159638
112.4	0.159185
112.5	0.158728
112.6	0.158269
112.7	0.157809
112.8	0.157352
112.9	0.1569
113	0.15645
113.1	0.156004
113.2	0.155563
113.3	0.155121
113.4	0.154677
113.5	0.15423
113.6	0.153783
113.7	0.153334
113.8	0.152888
113.9	0.152442
114	0.151999
114.1	0.151559
114.2	0.151115
114.3	0.150673
114.4	0.15023
114.5	0.149785
114.6	0.14934
114.7	0.148894
114.8	0.148448
114.9	0.148004
115	0.147558
115.1	0.147113
115.2	0.146677
115.3	0.146244
115.4	0.145812
115.5	0.145384
115.6	0.144954
115.7	0.144526
115.8	0.1441
115.9	0.143678
116	0.14326
116.1	0.142848
116.2	0.142442
116.3	0.142039
116.4	0.141635
116.5	0.141236
116.6	0.140838
116.7	0.140446
116.8	0.140057
116.9	0.139669
117	0.139285
117.1	0.138903
117.2	0.138524
117.3	0.138149
117.4	0.137772
117.5	0.137399
117.6	0.137025
117.7	0.136649
117.8	0.136272
117.9	0.135897
118	0.13552
118.1	0.135139
118.2	0.134753
118.3	0.134365
118.4	0.133978
118.5	0.133592
118.6	0.133211
118.7	0.132831
118.8	0.132452
118.9	0.132072
119	0.13169
119.1	0.131304
119.2	0.130915
119.3	0.130527
119.4	0.130141
119.5	0.129755
119.6	0.129369
119.7	0.128986
119.8	0.128601
119.9	0.128217
120	0.127833
120.1	0.127451
120.2	0.127072
120.3	0.126699
120.4	0.126327
120.5	0.12595
120.6	0.125573
120.7	0.125198
120.8	0.124826
120.9	0.12446
121	0.124098
121.1	0.123741
121.2	0.123392
121.3	0.123046
121.4	0.122695
121.5	0.122341
121.6	0.121988
121.7	0.121638
121.8	0.121285
121.9	0.120933
122	0.120586
122.1	0.120242
122.2	0.119899
122.3	0.119558
122.4	0.119215
122.5	0.11887
122.6	0.118527
122.7	0.118183
122.8	0.117838
122.9	0.117486
123	0.11713
123.1	0.11677
123.2	0.116409
123.3	0.116045
123.4	0.115684
123.5	0.115324
123.6	0.114962
123.7	0.114598
123.8	0.114233
123.9	0.113867
124	0.113497
124.1	0.113125
124.2	0.112755
124.3	0.112385
124.4	0.112016
124.5	0.11164
124.6	0.111262
124.7	0.110882
124.8	0.110502
124.9	0.110127
125	0.10975
125.1	0.10937
125.2	0.108993
125.3	0.108624
125.4	0.108259
125.5	0.107898
125.6	0.107544
125.7	0.107195
125.8	0.106846
125.9	0.1065
126	0.106166
126.1	0.105838
126.2	0.10551
126.3	0.105179
126.4	0.104848
126.5	0.104519
126.6	0.104183
126.7	0.103846
126.8	0.103503
126.9	0.103157
127	0.102812
127.1	0.102468
127.2	0.102124
127.3	0.101786
127.4	0.10145
127.5	0.101112
127.6	0.100773
127.7	0.100438
127.8	0.100106
127.9	0.0997825
128	0.0994632
128.1	0.0991397
128.2	0.098814
128.3	0.0984938
128.4	0.0981713
128.5	0.0978487
128.6	0.0975284
128.7	0.0972133
128.8	0.0968987
128.9	0.0965838
129	0.096268
129.1	0.0959514
129.2	0.0956343
129.3	0.0953156
129.4	0.0949984
129.5	0.0946854
129.6	0.094377
129.7	0.0940714
129.8	0.0937705
129.9	0.0934734
130	0.0931742
130.1	0.0928745
130.2	0.0925727
130.3	0.092272
130.4	0.0919779
130.5	0.09169
130.6	0.0914118
130.7	0.0911378
130.8	0.0908624
130.9	0.0905855
131	0.0903074
131.1	0.0900314
131.2	0.0897594
131.3	0.0894896
131.4	0.0892176
131.5	0.0889459
131.6	0.0886749
131.7	0.0884072
131.8	0.0881419
131.9	0.087879
132	0.0876211
132.1	0.0873671
132.2	0.0871112
132.3	0.0868545
132.4	0.0865986
132.5	0.086339
132.6	0.0860801
132.7	0.0858176
132.8	0.0855578
132.9	0.0853021
133	0.0850451
133.1	0.084786
133.2	0.0845238
133.3	0.0842591
133.4	0.0839892
133.5	0.0837193
133.6	0.0834509
133.7	0.0831829
133.8	0.0829156
133.9	0.0826512
134	0.0823864
134.1	0.0821215
134.2	0.0818599
134.3	0.0815945
134.4	0.0813304
134.5	0.0810684
134.6	0.0808081
134.7	0.0805492
134.8	0.0802868
134.9	0.0800275
135	0.0797686
135.1	0.0795094
135.2	0.0792441
135.3	0.0789755
135.4	0.07871
135.5	0.0784455
135.6	0.078184
135.7	0.077923
135.8	0.077664
135.9	0.0774051
136	0.0771478
136.1	0.0768905
136.2	0.0766326
136.3	0.076377
136.4	0.076124
136.5	0.0758692
136.6	0.0756103
136.7	0.0753531
136.8	0.0750968
136.9	0.0748388
137	0.0745811
137.1	0.0743242
137.2	0.0740721
137.3	0.0738266
137.4	0.0735846
137.5	0.0733466
137.6	0.0731146
137.7	0.072884
137.8	0.0726554
137.9	0.0724318
138	0.0722074
138.1	0.0719852
138.2	0.0717648
138.3	0.0715435
138.4	0.071321
138.5	0.0710952
138.6	0.0708691
138.7	0.0706385
138.8	0.0704071
138.9	0.0701804
139	0.0699505
139.1	0.0697189
139.2	0.0694869
139.3	0.069256
139.4	0.0690281
139.5	0.0688034
139.6	0.068581
139.7	0.0683577
139.8	0.0681335
139.9	0.0679055
140	0.0676751
140.1	0.0674448
140.2	0.0672111
140.3	0.0669733
140.4	0.0667298
140.5	0.0664796
140.6	0.0662266
140.7	0.0659696
140.8	0.0657136
140.9	0.0654555
141	0.065194
141.1	0.0649346
141.2	0.0646765
141.3	0.0644118
141.4	0.0641456
141.5	0.0638823
141.6	0.0636257
141.7	0.0633705
141.8	0.0631182
141.9	0.062872
142	0.0626325
142.1	0.0623967
142.2	0.0621635
142.3	0.0619278
142.4	0.0616901
142.5	0.0614486
142.6	0.0612097
142.7	0.0609735
142.8	0.0607361
142.9	0.0604982
143	0.0602608
143.1	0.0600243
143.2	0.0597875
143.3	0.0595526
143.4	0.0593124
143.5	0.0590733
143.6	0.0588372
143.7	0.0586014
143.8	0.0583633
143.9	0.0581289
144	0.0578938
144.1	0.0576532
144.2	0.0574089
144.3	0.0571645
