LagTime	Correlation

0	3.14541
0.1	3.1404
0.2	3.13292
0.3	3.12486
0.4	3.1167
0.5	3.10855
0.6	3.10044
0.7	3.09239
0.8	3.0844
0.9	3.07646
1	3.06856
1.1	3.06072
1.2	3.05293
1.3	3.04519
1.4	3.03749
1.5	3.02985
1.6	3.02224
1.7	3.01469
1.8	3.00718
1.9	2.99972
2	2.99231
2.1	2.98495
2.2	2.97763
2.3	2.97035
2.4	2.96312
2.5	2.95592
2.6	2.94876
2.7	2.94165
2.8	2.93457
2.9	2.92752
3	2.92051
3.1	2.91353
3.2	2.90659
3.3	2.89969
3.4	2.89283
3.5	2.886
3.6	2.87922
3.7	2.87247
3.8	2.86577
3.9	2.8591
4	2.85247
4.1	2.84588
4.2	2.83933
4.3	2.83282
4.4	2.82635
4.5	2.8199
4.6	2.81349
4.7	2.80712
4.8	2.80079
4.9	2.79448
5	2.78821
5.1	2.78196
5.2	2.77574
5.3	2.76955
5.4	2.76339
5.5	2.75726
5.6	2.75116
5.7	2.74509
5.8	2.73904
5.9	2.73303
6	2.72705
6.1	2.72109
6.2	2.71516
6.3	2.70926
6.4	2.70339
6.5	2.69755
6.6	2.69172
6.7	2.68592
6.8	2.68015
6.9	2.6744
7	2.66867
7.1	2.66297
7.2	2.65729
7.3	2.65164
7.4	2.646
7.5	2.64039
7.6	2.6348
7.7	2.62924
7.8	2.6237
7.9	2.61819
8	2.61271
8.1	2.60725
8.2	2.60181
8.3	2.5964
8.4	2.59101
8.5	2.58563
8.6	2.58028
8.7	2.57495
8.8	2.56965
8.9	2.56436
9	2.5591
9.1	2.55385
9.2	2.54863
9.3	2.54342
9.4	2.53823
9.5	2.53306
9.6	2.52792
9.7	2.52279
9.8	2.51768
9.9	2.5126
10	2.50753
10.1	2.50248
10.2	2.49745
10.3	2.49244
10.4	2.48744
10.5	2.48247
10.6	2.47751
10.7	2.47258
10.8	2.46766
10.9	2.46276
11	2.45788
11.1	2.45301
11.2	2.44815
11.3	2.44331
11.4	2.43848
11.5	2.43367
11.6	2.42887
11.7	2.42409
11.8	2.41932
11.9	2.41457
12	2.40983
12.1	2.40511
12.2	2.4004
12.3	2.39571
12.4	2.39103
12.5	2.38637
12.6	2.38172
12.7	2.37709
12.8	2.37247
12.9	2.36787
13	2.36329
13.1	2.35872
13.2	2.35416
13.3	2.34962
13.4	2.34509
13.5	2.34057
13.6	2.33607
13.7	2.33158
13.8	2.3271
13.9	2.32264
14	2.31819
14.1	2.31375
14.2	2.30933
14.3	2.30492
14.4	2.30053
14.5	2.29614
14.6	2.29176
14.7	2.28739
14.8	2.28302
14.9	2.27867
15	2.27433
15.1	2.27
15.2	2.26569
15.3	2.26138
15.4	2.25709
15.5	2.25281
15.6	2.24853
15.7	2.24428
15.8	2.24005
15.9	2.23583
16	2.23163
16.1	2.22745
16.2	2.22326
16.3	2.21909
16.4	2.21493
16.5	2.21079
16.6	2.20666
16.7	2.20254
16.8	2.19843
16.9	2.19434
17	2.19025
17.1	2.18618
17.2	2.18212
17.3	2.17807
17.4	2.17403
17.5	2.17001
17.6	2.166
17.7	2.162
17.8	2.158
17.9	2.15402
18	2.15005
18.1	2.14609
18.2	2.14214
18.3	2.13822
18.4	2.1343
18.5	2.13039
18.6	2.12649
18.7	2.1226
18.8	2.11872
18.9	2.11485
19	2.11098
19.1	2.10711
19.2	2.10324
19.3	2.09939
19.4	2.09554
19.5	2.0917
19.6	2.08787
19.7	2.08404
19.8	2.08022
19.9	2.07641
20	2.07261
20.1	2.06882
20.2	2.06504
20.3	2.06127
20.4	2.0575
20.5	2.05374
20.6	2.05
20.7	2.04626
20.8	2.04254
20.9	2.03883
21	2.03513
21.1	2.03145
21.2	2.02778
21.3	2.02411
21.4	2.02046
21.5	2.0168
21.6	2.01315
21.7	2.00951
21.8	2.00588
21.9	2.00226
22	1.99864
22.1	1.99502
22.2	1.99141
22.3	1.98782
22.4	1.98422
22.5	1.98064
22.6	1.97707
22.7	1.97351
22.8	1.96995
22.9	1.9664
23	1.96286
23.1	1.95932
23.2	1.95578
23.3	1.95224
23.4	1.94871
23.5	1.94518
23.6	1.94166
23.7	1.93814
23.8	1.93464
23.9	1.93114
24	1.92765
24.1	1.92417
24.2	1.9207
24.3	1.91723
24.4	1.91378
24.5	1.91033
24.6	1.9069
24.7	1.90346
24.8	1.90004
24.9	1.89662
25	1.89323
25.1	1.88984
25.2	1.88647
25.3	1.88311
25.4	1.87975
25.5	1.8764
25.6	1.87306
25.7	1.86972
25.8	1.86639
25.9	1.86307
26	1.85975
26.1	1.85644
26.2	1.85314
26.3	1.84984
26.4	1.84656
26.5	1.84328
26.6	1.84001
26.7	1.83675
26.8	1.8335
26.9	1.83025
27	1.82701
27.1	1.82378
27.2	1.82056
27.3	1.81734
27.4	1.81412
27.5	1.8109
27.6	1.80769
27.7	1.80449
27.8	1.80129
27.9	1.7981
28	1.79492
28.1	1.79175
28.2	1.78857
28.3	1.78541
28.4	1.78224
28.5	1.77906
28.6	1.7759
28.7	1.77273
28.8	1.76958
28.9	1.76643
29	1.76329
29.1	1.76016
29.2	1.75704
29.3	1.75392
29.4	1.75081
29.5	1.74771
29.6	1.74461
29.7	1.74152
29.8	1.73843
29.9	1.73535
30	1.73228
30.1	1.72921
30.2	1.72615
30.3	1.72308
30.4	1.72003
30.5	1.71699
30.6	1.71396
30.7	1.71093
30.8	1.70791
30.9	1.7049
31	1.7019
31.1	1.6989
31.2	1.6959
31.3	1.69291
31.4	1.68993
31.5	1.68696
31.6	1.68399
31.7	1.68103
31.8	1.67807
31.9	1.67512
32	1.67217
32.1	1.66922
32.2	1.66629
32.3	1.66335
32.4	1.66042
32.5	1.6575
32.6	1.65458
32.7	1.65168
32.8	1.64878
32.9	1.64589
33	1.643
33.1	1.64013
33.2	1.63725
33.3	1.63438
33.4	1.63152
33.5	1.62866
33.6	1.62579
33.7	1.62293
33.8	1.62008
33.9	1.61723
34	1.61438
34.1	1.61154
34.2	1.6087
34.3	1.60588
34.4	1.60306
34.5	1.60024
34.6	1.59742
34.7	1.59461
34.8	1.59179
34.9	1.58899
35	1.58619
35.1	1.5834
35.2	1.58062
35.3	1.57784
35.4	1.57508
35.5	1.57231
35.6	1.56955
35.7	1.5668
35.8	1.56405
35.9	1.56131
36	1.55858
36.1	1.55585
36.2	1.55313
36.3	1.55041
36.4	1.5477
36.5	1.545
36.6	1.54231
36.7	1.53963
36.8	1.53695
36.9	1.53427
37	1.53161
37.1	1.52895
37.2	1.5263
37.3	1.52366
37.4	1.52102
37.5	1.51839
37.6	1.51576
37.7	1.51314
37.8	1.51053
37.9	1.50791
38	1.50529
38.1	1.50267
38.2	1.50006
38.3	1.49744
38.4	1.49483
38.5	1.49221
38.6	1.48959
38.7	1.48698
38.8	1.48437
38.9	1.48177
39	1.47917
39.1	1.47657
39.2	1.47397
39.3	1.47139
39.4	1.46881
39.5	1.46623
39.6	1.46367
39.7	1.46111
39.8	1.45855
39.9	1.456
40	1.45346
40.1	1.45092
40.2	1.44838
40.3	1.44585
40.4	1.44332
40.5	1.4408
40.6	1.43828
40.7	1.43576
40.8	1.43326
40.9	1.43077
41	1.42827
41.1	1.42578
41.2	1.42331
41.3	1.42084
41.4	1.41838
41.5	1.41592
41.6	1.41347
41.7	1.41102
41.8	1.40858
41.9	1.40614
42	1.4037
42.1	1.40128
42.2	1.39885
42.3	1.39643
42.4	1.39401
42.5	1.39159
42.6	1.38917
42.7	1.38674
42.8	1.38433
42.9	1.38192
43	1.37951
43.1	1.37712
43.2	1.37473
43.3	1.37235
43.4	1.36996
43.5	1.36758
43.6	1.3652
43.7	1.36282
43.8	1.36043
43.9	1.35804
44	1.35566
44.1	1.35328
44.2	1.3509
44.3	1.34852
44.4	1.34615
44.5	1.34378
44.6	1.34142
44.7	1.33907
44.8	1.33672
44.9	1.33437
45	1.33203
45.1	1.3297
45.2	1.32738
45.3	1.32506
45.4	1.32273
45.5	1.32041
45.6	1.31809
45.7	1.31577
45.8	1.31346
45.9	1.31116
46	1.30887
46.1	1.30658
46.2	1.30431
46.3	1.30203
46.4	1.29975
46.5	1.29748
46.6	1.29522
46.7	1.29296
46.8	1.29072
46.9	1.28848
47	1.28626
47.1	1.28403
47.2	1.28181
47.3	1.27959
47.4	1.27737
47.5	1.27515
47.6	1.27294
47.7	1.27073
47.8	1.26853
47.9	1.26633
48	1.26413
48.1	1.26195
48.2	1.25977
48.3	1.25759
48.4	1.25541
48.5	1.25323
48.6	1.25105
48.7	1.24888
48.8	1.24671
48.9	1.24454
49	1.24238
49.1	1.24022
49.2	1.23807
49.3	1.23593
49.4	1.23379
49.5	1.23166
49.6	1.22953
49.7	1.22742
49.8	1.22531
49.9	1.2232
50	1.22111
50.1	1.21901
50.2	1.21692
50.3	1.21485
50.4	1.21278
50.5	1.21072
50.6	1.20867
50.7	1.20662
50.8	1.20458
50.9	1.20254
51	1.20051
51.1	1.19849
51.2	1.19646
51.3	1.19443
51.4	1.1924
51.5	1.19037
51.6	1.18835
51.7	1.18633
51.8	1.18433
51.9	1.18232
52	1.18032
52.1	1.17831
52.2	1.17632
52.3	1.17433
52.4	1.17233
52.5	1.17034
52.6	1.16836
52.7	1.16637
52.8	1.16438
52.9	1.1624
53	1.16042
53.1	1.15845
53.2	1.15649
53.3	1.15453
53.4	1.15258
53.5	1.15062
53.6	1.14867
53.7	1.14673
53.8	1.14478
53.9	1.14283
54	1.14089
54.1	1.13896
54.2	1.13702
54.3	1.1351
54.4	1.13318
54.5	1.13127
54.6	1.12936
54.7	1.12746
54.8	1.12556
54.9	1.12367
55	1.12178
55.1	1.11989
55.2	1.11801
55.3	1.11613
55.4	1.11426
55.5	1.11239
55.6	1.11052
55.7	1.10866
55.8	1.10679
55.9	1.10493
56	1.10307
56.1	1.10121
56.2	1.09937
56.3	1.09752
56.4	1.09567
56.5	1.09383
56.6	1.09199
56.7	1.09016
56.8	1.08834
56.9	1.08652
57	1.08471
57.1	1.08291
57.2	1.0811
57.3	1.0793
57.4	1.07751
57.5	1.07573
57.6	1.07394
57.7	1.07216
57.8	1.07038
57.9	1.06862
58	1.06685
58.1	1.06509
58.2	1.06332
58.3	1.06155
58.4	1.05978
58.5	1.05802
58.6	1.05627
58.7	1.05452
58.8	1.05278
58.9	1.05105
59	1.0493
59.1	1.04756
59.2	1.04583
59.3	1.04409
59.4	1.04235
59.5	1.04062
59.6	1.0389
59.7	1.03718
59.8	1.03546
59.9	1.03373
60	1.03202
60.1	1.0303
60.2	1.02858
60.3	1.02686
60.4	1.02514
60.5	1.02343
60.6	1.02172
60.7	1.02001
60.8	1.0183
60.9	1.0166
61	1.0149
61.1	1.01319
61.2	1.0115
61.3	1.0098
61.4	1.00811
61.5	1.00643
61.6	1.00475
61.7	1.00308
61.8	1.00141
61.9	0.999752
62	0.998096
62.1	0.996443
62.2	0.99479
62.3	0.993138
62.4	0.991491
62.5	0.989848
62.6	0.988206
62.7	0.986561
62.8	0.984916
62.9	0.983266
63	0.98162
63.1	0.979972
63.2	0.978328
63.3	0.976687
63.4	0.975045
63.5	0.97341
63.6	0.971775
63.7	0.970139
63.8	0.968507
63.9	0.966879
64	0.965256
64.1	0.963636
64.2	0.962018
64.3	0.960401
64.4	0.958783
64.5	0.957164
64.6	0.955545
64.7	0.953923
64.8	0.952303
64.9	0.950682
65	0.949059
65.1	0.947433
65.2	0.94581
65.3	0.944187
65.4	0.942573
65.5	0.940967
65.6	0.939371
65.7	0.937782
65.8	0.936197
65.9	0.934612
66	0.933024
66.1	0.931437
66.2	0.929845
66.3	0.928253
66.4	0.926661
66.5	0.925071
66.6	0.923484
66.7	0.9219
66.8	0.920322
66.9	0.918746
67	0.917171
67.1	0.9156
67.2	0.914034
67.3	0.912469
67.4	0.9109
67.5	0.909335
67.6	0.907777
67.7	0.906225
67.8	0.904677
67.9	0.903131
68	0.901587
68.1	0.900046
68.2	0.898506
68.3	0.89697
68.4	0.895434
68.5	0.893902
68.6	0.892371
68.7	0.89084
68.8	0.889312
68.9	0.88779
69	0.886274
69.1	0.884757
69.2	0.883238
69.3	0.881722
69.4	0.880206
69.5	0.878689
69.6	0.877174
69.7	0.875666
69.8	0.874161
69.9	0.87266
70	0.871159
70.1	0.86966
70.2	0.868158
70.3	0.866661
70.4	0.865167
70.5	0.863682
70.6	0.862202
70.7	0.860724
70.8	0.859254
70.9	0.85779
71	0.856334
71.1	0.854878
71.2	0.853426
71.3	0.851972
71.4	0.850517
71.5	0.849062
71.6	0.84761
71.7	0.846157
71.8	0.844701
71.9	0.843245
72	0.841785
72.1	0.840328
72.2	0.838876
72.3	0.837429
72.4	0.835985
72.5	0.834547
72.6	0.833114
72.7	0.831688
72.8	0.83027
72.9	0.828855
73	0.827452
73.1	0.826053
73.2	0.824655
73.3	0.823263
73.4	0.821869
73.5	0.820474
73.6	0.819081
73.7	0.817689
73.8	0.816304
73.9	0.814923
74	0.813547
74.1	0.812171
74.2	0.8108
74.3	0.80943
74.4	0.80806
74.5	0.806686
74.6	0.805313
74.7	0.803937
74.8	0.802563
74.9	0.801189
75	0.799817
75.1	0.79845
75.2	0.79709
75.3	0.795736
75.4	0.794388
75.5	0.793045
75.6	0.791704
75.7	0.790369
75.8	0.789038
75.9	0.787707
76	0.786377
76.1	0.785053
76.2	0.783731
76.3	0.782409
76.4	0.781085
76.5	0.779762
76.6	0.778444
76.7	0.777128
76.8	0.775817
76.9	0.774512
77	0.773212
77.1	0.771915
77.2	0.770617
77.3	0.76932
77.4	0.768025
77.5	0.766732
77.6	0.765446
77.7	0.764162
77.8	0.762889
77.9	0.761618
78	0.760347
78.1	0.759076
78.2	0.757806
78.3	0.756537
78.4	0.75527
78.5	0.754003
78.6	0.75274
78.7	0.751474
78.8	0.750209
78.9	0.748945
79	0.747682
79.1	0.74642
79.2	0.745157
79.3	0.743887
79.4	0.742615
79.5	0.741345
79.6	0.740076
79.7	0.738803
79.8	0.737523
79.9	0.736249
80	0.73498
80.1	0.733713
80.2	0.732451
80.3	0.731196
80.4	0.729945
80.5	0.728694
80.6	0.727439
80.7	0.72618
80.8	0.724918
80.9	0.723654
81	0.722388
81.1	0.721116
81.2	0.719843
81.3	0.71857
81.4	0.717303
81.5	0.716038
81.6	0.714772
81.7	0.713505
81.8	0.712242
81.9	0.710982
82	0.709728
82.1	0.708478
82.2	0.707233
82.3	0.705989
82.4	0.704744
82.5	0.703503
82.6	0.702262
82.7	0.701022
82.8	0.699785
82.9	0.69855
83	0.697315
83.1	0.696079
83.2	0.694843
83.3	0.693614
83.4	0.692394
83.5	0.691182
83.6	0.689975
83.7	0.688772
83.8	0.687572
83.9	0.686374
84	0.685186
84.1	0.683999
84.2	0.682817
84.3	0.681642
84.4	0.680477
84.5	0.67932
84.6	0.678167
84.7	0.677018
84.8	0.675871
84.9	0.674721
85	0.673567
85.1	0.672421
85.2	0.671274
85.3	0.670128
85.4	0.668988
85.5	0.667848
85.6	0.666707
85.7	0.66557
85.8	0.664439
85.9	0.663312
86	0.662189
86.1	0.66107
86.2	0.659958
86.3	0.658852
86.4	0.657753
86.5	0.656658
86.6	0.655568
86.7	0.654476
86.8	0.653382
86.9	0.652291
87	0.651199
87.1	0.650107
87.2	0.649018
87.3	0.647933
87.4	0.646852
87.5	0.645777
87.6	0.644707
87.7	0.64364
87.8	0.642575
87.9	0.641514
88	0.640455
88.1	0.639395
88.2	0.638336
88.3	0.63728
88.4	0.636224
88.5	0.635173
88.6	0.634126
88.7	0.633081
88.8	0.632043
88.9	0.631
89	0.62996
89.1	0.628923
89.2	0.627886
89.3	0.62685
89.4	0.625814
89.5	0.624777
89.6	0.623744
89.7	0.622712
89.8	0.621682
89.9	0.620654
90	0.619624
90.1	0.618596
90.2	0.617569
90.3	0.616547
90.4	0.615534
90.5	0.614523
90.6	0.613513
90.7	0.612507
90.8	0.611504
90.9	0.610501
91	0.609496
91.1	0.60849
91.2	0.607481
91.3	0.606471
91.4	0.605464
91.5	0.604458
91.6	0.60345
91.7	0.602447
91.8	0.601445
91.9	0.600444
92	0.599443
92.1	0.598437
92.2	0.597432
92.3	0.596432
92.4	0.595434
92.5	0.594434
92.6	0.593439
92.7	0.592453
92.8	0.591474
92.9	0.590494
93	0.589507
93.1	0.588518
93.2	0.587534
93.3	0.586556
93.4	0.585582
93.5	0.584612
93.6	0.583651
93.7	0.582693
93.8	0.581732
93.9	0.580767
94	0.579803
94.1	0.578839
94.2	0.577871
94.3	0.576902
94.4	0.575933
94.5	0.574962
94.6	0.573992
94.7	0.573025
94.8	0.572057
94.9	0.57109
95	0.570129
95.1	0.569174
95.2	0.56822
95.3	0.567271
95.4	0.566323
95.5	0.565377
95.6	0.564439
95.7	0.563501
95.8	0.562564
95.9	0.561628
96	0.560697
96.1	0.559771
96.2	0.55885
96.3	0.557933
96.4	0.55702
96.5	0.556106
96.6	0.555192
96.7	0.554278
96.8	0.553368
96.9	0.552464
97	0.551566
97.1	0.550672
97.2	0.549781
97.3	0.548891
97.4	0.548002
97.5	0.547112
97.6	0.546217
97.7	0.545327
97.8	0.54444
97.9	0.54355
98	0.542661
98.1	0.541772
98.2	0.540882
98.3	0.539996
98.4	0.539115
98.5	0.538235
98.6	0.537356
98.7	0.536479
98.8	0.5356
98.9	0.534723
99	0.533847
99.1	0.532975
99.2	0.532104
99.3	0.531236
99.4	0.530367
99.5	0.529499
99.6	0.528631
99.7	0.527761
99.8	0.526888
99.9	0.526014
100	0.525141
100.1	0.524271
100.2	0.523409
100.3	0.522554
100.4	0.521708
100.5	0.520869
100.6	0.520035
100.7	0.519203
100.8	0.518377
100.9	0.51755
101	0.516725
101.1	0.515897
101.2	0.515068
101.3	0.514238
101.4	0.513408
101.5	0.512581
101.6	0.511757
101.7	0.510933
101.8	0.510108
101.9	0.509283
102	0.508465
102.1	0.507654
102.2	0.506843
102.3	0.506032
102.4	0.505222
102.5	0.504411
102.6	0.503599
102.7	0.502786
102.8	0.501972
102.9	0.501158
103	0.500344
103.1	0.49953
103.2	0.498713
103.3	0.497899
103.4	0.49709
103.5	0.49628
103.6	0.495472
103.7	0.494665
103.8	0.493869
103.9	0.493082
104	0.492302
104.1	0.491524
104.2	0.490749
104.3	0.489974
104.4	0.489201
104.5	0.488433
104.6	0.487668
104.7	0.486908
104.8	0.486153
104.9	0.485395
105	0.484637
105.1	0.483878
105.2	0.483126
105.3	0.482378
105.4	0.48163
105.5	0.480882
105.6	0.480135
105.7	0.479394
105.8	0.478653
105.9	0.477918
106	0.477182
106.1	0.476442
106.2	0.475699
106.3	0.474962
106.4	0.474236
106.5	0.473517
106.6	0.4728
106.7	0.47208
106.8	0.471357
106.9	0.470634
107	0.469912
107.1	0.469193
107.2	0.468479
107.3	0.467773
107.4	0.467077
107.5	0.466386
107.6	0.465694
107.7	0.465006
107.8	0.464319
107.9	0.463635
108	0.462952
108.1	0.462266
108.2	0.461576
108.3	0.460888
108.4	0.460204
108.5	0.459527
108.6	0.458857
108.7	0.458194
108.8	0.457531
108.9	0.456867
109	0.456207
109.1	0.455553
109.2	0.454903
109.3	0.454256
109.4	0.453613
109.5	0.452973
109.6	0.452333
109.7	0.451689
109.8	0.45104
109.9	0.450385
110	0.449722
110.1	0.449055
110.2	0.448389
110.3	0.447725
110.4	0.447056
110.5	0.446384
110.6	0.445706
110.7	0.445029
110.8	0.444358
110.9	0.443691
111	0.443026
111.1	0.442362
111.2	0.441702
111.3	0.441047
111.4	0.440393
111.5	0.439739
111.6	0.439086
111.7	0.438434
111.8	0.437784
111.9	0.437138
112	0.436497
112.1	0.435852
112.2	0.435203
112.3	0.434551
112.4	0.433898
112.5	0.433248
112.6	0.432607
112.7	0.43197
112.8	0.431335
112.9	0.430699
113	0.430061
113.1	0.429419
113.2	0.428774
113.3	0.42813
113.4	0.427487
113.5	0.426842
113.6	0.426197
113.7	0.425551
113.8	0.424907
113.9	0.424268
114	0.423625
114.1	0.422983
114.2	0.42234
114.3	0.4217
114.4	0.421058
114.5	0.420416
114.6	0.419773
114.7	0.419126
114.8	0.418478
114.9	0.417827
115	0.417174
115.1	0.416519
115.2	0.415863
115.3	0.415209
115.4	0.414554
115.5	0.413898
115.6	0.413241
115.7	0.412583
115.8	0.411923
115.9	0.411262
116	0.410602
116.1	0.409942
116.2	0.409288
116.3	0.408634
116.4	0.407975
116.5	0.40732
116.6	0.406665
116.7	0.406014
116.8	0.405363
116.9	0.404711
117	0.404061
117.1	0.403413
117.2	0.402766
117.3	0.402119
117.4	0.401474
117.5	0.40083
117.6	0.400191
117.7	0.399551
117.8	0.398913
117.9	0.398276
118	0.397641
118.1	0.397005
118.2	0.396365
118.3	0.395724
118.4	0.395084
118.5	0.394448
118.6	0.393822
118.7	0.393208
118.8	0.392596
118.9	0.391983
119	0.391371
119.1	0.390754
119.2	0.390138
119.3	0.389524
119.4	0.388911
119.5	0.3883
119.6	0.387695
119.7	0.387091
119.8	0.386493
119.9	0.3859
120	0.385309
120.1	0.384719
120.2	0.384129
120.3	0.383545
120.4	0.382967
120.5	0.382394
120.6	0.38182
120.7	0.381249
120.8	0.380677
120.9	0.380108
121	0.37954
121.1	0.378975
121.2	0.378413
121.3	0.377855
121.4	0.377301
121.5	0.376749
121.6	0.376193
121.7	0.375636
121.8	0.375077
121.9	0.374517
122	0.373959
122.1	0.373401
122.2	0.372849
122.3	0.372297
122.4	0.371743
122.5	0.37119
122.6	0.370633
122.7	0.370072
122.8	0.369511
122.9	0.368953
123	0.368395
123.1	0.367844
123.2	0.367298
123.3	0.366755
123.4	0.366217
123.5	0.365679
123.6	0.365136
123.7	0.364596
123.8	0.364061
123.9	0.363526
124	0.362994
124.1	0.362465
124.2	0.361938
124.3	0.361409
124.4	0.360878
124.5	0.360343
124.6	0.359807
124.7	0.359268
124.8	0.358722
124.9	0.358172
125	0.357619
125.1	0.357067
125.2	0.356516
125.3	0.355967
125.4	0.355417
125.5	0.35486
125.6	0.354303
125.7	0.353743
125.8	0.353182
125.9	0.352616
126	0.35205
126.1	0.351486
126.2	0.350922
126.3	0.350358
126.4	0.349794
126.5	0.349225
126.6	0.348663
126.7	0.348107
126.8	0.347554
126.9	0.346998
127	0.346441
127.1	0.345882
127.2	0.345322
127.3	0.344764
127.4	0.344207
127.5	0.343651
127.6	0.343094
127.7	0.342528
127.8	0.341961
127.9	0.341392
128	0.340826
128.1	0.340258
128.2	0.339688
128.3	0.339117
128.4	0.338541
128.5	0.337965
128.6	0.337393
128.7	0.336824
128.8	0.336259
128.9	0.335701
129	0.335146
129.1	0.334594
129.2	0.334043
129.3	0.33349
129.4	0.332938
129.5	0.332388
129.6	0.331838
129.7	0.331293
129.8	0.330749
129.9	0.330203
130	0.32966
130.1	0.32912
130.2	0.328582
130.3	0.32804
130.4	0.327497
130.5	0.326949
130.6	0.326397
130.7	0.32584
130.8	0.325281
130.9	0.324719
131	0.324156
131.1	0.323597
131.2	0.323045
131.3	0.322496
131.4	0.321949
131.5	0.321402
131.6	0.32086
131.7	0.320322
131.8	0.319786
131.9	0.319252
132	0.318719
132.1	0.318191
132.2	0.317667
132.3	0.317147
132.4	0.316625
132.5	0.316107
132.6	0.315587
132.7	0.315064
132.8	0.314542
132.9	0.314018
133	0.313493
133.1	0.312965
133.2	0.312437
133.3	0.311909
133.4	0.311377
133.5	0.310841
133.6	0.310308
133.7	0.309773
133.8	0.309238
133.9	0.308704
134	0.308171
134.1	0.30764
134.2	0.307118
134.3	0.306601
134.4	0.306086
134.5	0.305572
134.6	0.305056
134.7	0.304539
134.8	0.304026
134.9	0.303517
135	0.303012
135.1	0.302507
135.2	0.302004
135.3	0.301501
135.4	0.300997
135.5	0.300492
135.6	0.299987
135.7	0.299488
135.8	0.298993
135.9	0.298494
136	0.297992
136.1	0.297484
136.2	0.296975
136.3	0.296464
136.4	0.295949
136.5	0.295438
136.6	0.294931
136.7	0.294429
136.8	0.293928
136.9	0.293427
137	0.292927
137.1	0.292429
137.2	0.291932
137.3	0.291435
137.4	0.290946
137.5	0.290458
137.6	0.289966
137.7	0.289473
137.8	0.288983
137.9	0.288498
138	0.288016
138.1	0.287539
138.2	0.287066
138.3	0.286596
138.4	0.286124
138.5	0.285651
138.6	0.285171
138.7	0.284689
138.8	0.284206
138.9	0.283725
139	0.283249
139.1	0.28277
139.2	0.282289
139.3	0.28181
139.4	0.281329
139.5	0.28085
139.6	0.280374
139.7	0.279905
139.8	0.279445
139.9	0.278984
140	0.278521
140.1	0.278056
140.2	0.27759
140.3	0.277122
140.4	0.276656
140.5	0.276192
140.6	0.275728
140.7	0.275266
140.8	0.274805
140.9	0.274346
141	0.273888
141.1	0.273436
141.2	0.272986
141.3	0.272537
141.4	0.272082
141.5	0.271619
141.6	0.27115
141.7	0.270678
141.8	0.270207
141.9	0.269734
142	0.269256
142.1	0.268776
142.2	0.268294
142.3	0.26781
142.4	0.267328
142.5	0.266847
142.6	0.266371
142.7	0.265893
142.8	0.265416
142.9	0.26494
143	0.264461
143.1	0.263982
143.2	0.263508
143.3	0.263034
143.4	0.262557
143.5	0.262077
143.6	0.261593
143.7	0.261105
143.8	0.260618
143.9	0.260133
144	0.25965
144.1	0.259169
144.2	0.258688
144.3	0.258206
144.4	0.257728
144.5	0.257251
144.6	0.256779
144.7	0.256312
144.8	0.255846
144.9	0.255381
145	0.254913
145.1	0.254438
145.2	0.253963
145.3	0.253485
145.4	0.253005
145.5	0.252525
145.6	0.252044
145.7	0.251565
145.8	0.251094
145.9	0.250625
146	0.250156
146.1	0.249679
146.2	0.249198
146.3	0.248717
146.4	0.248235
146.5	0.24775
146.6	0.247261
146.7	0.246774
146.8	0.246283
146.9	0.24579
147	0.245301
147.1	0.244813
147.2	0.244326
147.3	0.243839
147.4	0.243348
147.5	0.242856
147.6	0.242364
