LagTime	Correlation

0	1.78787
0.1	1.78286
0.2	1.77537
0.3	1.7673
0.4	1.75914
0.5	1.751
0.6	1.74293
0.7	1.73491
0.8	1.72697
0.9	1.71909
1	1.71127
1.1	1.70351
1.2	1.6958
1.3	1.68816
1.4	1.68059
1.5	1.67307
1.6	1.6656
1.7	1.6582
1.8	1.65085
1.9	1.64355
2	1.63631
2.1	1.62913
2.2	1.622
2.3	1.61492
2.4	1.6079
2.5	1.60093
2.6	1.59402
2.7	1.58716
2.8	1.58036
2.9	1.57361
3	1.56692
3.1	1.56028
3.2	1.55369
3.3	1.54715
3.4	1.54065
3.5	1.53419
3.6	1.52777
3.7	1.52139
3.8	1.51505
3.9	1.50875
4	1.5025
4.1	1.4963
4.2	1.49015
4.3	1.48403
4.4	1.47795
4.5	1.47191
4.6	1.46591
4.7	1.45995
4.8	1.45403
4.9	1.44815
5	1.4423
5.1	1.4365
5.2	1.43073
5.3	1.425
5.4	1.41931
5.5	1.41365
5.6	1.40803
5.7	1.40245
5.8	1.39689
5.9	1.39138
6	1.38589
6.1	1.38045
6.2	1.37503
6.3	1.36966
6.4	1.36432
6.5	1.35901
6.6	1.35374
6.7	1.34849
6.8	1.34328
6.9	1.3381
7	1.33295
7.1	1.32783
7.2	1.32275
7.3	1.3177
7.4	1.31269
7.5	1.3077
7.6	1.30276
7.7	1.29785
7.8	1.29298
7.9	1.28815
8	1.28335
8.1	1.27858
8.2	1.27385
8.3	1.26913
8.4	1.26445
8.5	1.25978
8.6	1.25515
8.7	1.25055
8.8	1.24598
8.9	1.24143
9	1.23691
9.1	1.23241
9.2	1.22795
9.3	1.22351
9.4	1.2191
9.5	1.21473
9.6	1.21038
9.7	1.20605
9.8	1.20175
9.9	1.19749
10	1.19325
10.1	1.18903
10.2	1.18484
10.3	1.18067
10.4	1.17652
10.5	1.17239
10.6	1.1683
10.7	1.16424
10.8	1.16019
10.9	1.15616
11	1.15216
11.1	1.14817
11.2	1.14421
11.3	1.14026
11.4	1.13634
11.5	1.13244
11.6	1.12856
11.7	1.12471
11.8	1.12088
11.9	1.11706
12	1.11327
12.1	1.10951
12.2	1.10576
12.3	1.10203
12.4	1.09833
12.5	1.09463
12.6	1.09096
12.7	1.08731
12.8	1.08367
12.9	1.08005
13	1.07645
13.1	1.07288
13.2	1.06933
13.3	1.0658
13.4	1.06229
13.5	1.0588
13.6	1.05533
13.7	1.05187
13.8	1.04844
13.9	1.04502
14	1.04161
14.1	1.03822
14.2	1.03484
14.3	1.03148
14.4	1.02813
14.5	1.0248
14.6	1.02149
14.7	1.0182
14.8	1.01493
14.9	1.01167
15	1.00843
15.1	1.00521
15.2	1.002
15.3	0.998808
15.4	0.995638
15.5	0.992489
15.6	0.989356
15.7	0.986239
15.8	0.983133
15.9	0.980043
16	0.976966
16.1	0.97391
16.2	0.970872
16.3	0.967846
16.4	0.964825
16.5	0.961819
16.6	0.958829
16.7	0.955849
16.8	0.952877
16.9	0.949919
17	0.946974
17.1	0.944048
17.2	0.94114
17.3	0.938249
17.4	0.935372
17.5	0.932508
17.6	0.929661
17.7	0.926826
17.8	0.924006
17.9	0.9212
18	0.918411
18.1	0.915632
18.2	0.912863
18.3	0.910104
18.4	0.907355
18.5	0.904621
18.6	0.901897
18.7	0.899179
18.8	0.896469
18.9	0.893771
19	0.891085
19.1	0.88841
19.2	0.885744
19.3	0.883087
19.4	0.880439
19.5	0.877798
19.6	0.875165
19.7	0.87254
19.8	0.869927
19.9	0.867328
20	0.864742
20.1	0.862165
20.2	0.859598
20.3	0.857043
20.4	0.8545
20.5	0.851969
20.6	0.84945
20.7	0.846944
20.8	0.844446
20.9	0.841961
21	0.839487
21.1	0.837031
21.2	0.834591
21.3	0.832162
21.4	0.829741
21.5	0.827328
21.6	0.824925
21.7	0.822534
21.8	0.820155
21.9	0.817788
22	0.815431
22.1	0.813088
22.2	0.810759
22.3	0.808439
22.4	0.80613
22.5	0.803831
22.6	0.801538
22.7	0.799251
22.8	0.796977
22.9	0.794714
23	0.792457
23.1	0.790207
23.2	0.787958
23.3	0.785708
23.4	0.783459
23.5	0.781218
23.6	0.778984
23.7	0.776758
23.8	0.774537
23.9	0.772324
24	0.770114
24.1	0.767914
24.2	0.765725
24.3	0.763542
24.4	0.761369
24.5	0.759209
24.6	0.75706
24.7	0.754921
24.8	0.752789
24.9	0.750663
25	0.748545
25.1	0.74644
25.2	0.744347
25.3	0.742259
25.4	0.740181
25.5	0.738109
25.6	0.736047
25.7	0.733992
25.8	0.731945
25.9	0.729907
26	0.727872
26.1	0.725847
26.2	0.72383
26.3	0.721821
26.4	0.71982
26.5	0.717823
26.6	0.715832
26.7	0.713843
26.8	0.711857
26.9	0.709882
27	0.707918
27.1	0.705968
27.2	0.704023
27.3	0.702084
27.4	0.700153
27.5	0.698229
27.6	0.696314
27.7	0.694406
27.8	0.69251
27.9	0.690621
28	0.688738
28.1	0.686866
28.2	0.685007
28.3	0.683151
28.4	0.681305
28.5	0.679468
28.6	0.677634
28.7	0.675802
28.8	0.673973
28.9	0.672146
29	0.670325
29.1	0.668508
29.2	0.666698
29.3	0.664892
29.4	0.663092
29.5	0.661298
29.6	0.659515
29.7	0.657739
29.8	0.655972
29.9	0.654217
30	0.652468
30.1	0.650726
30.2	0.648993
30.3	0.647264
30.4	0.645545
30.5	0.643827
30.6	0.642112
30.7	0.640405
30.8	0.638704
30.9	0.637006
31	0.635312
31.1	0.633618
31.2	0.631923
31.3	0.630227
31.4	0.628532
31.5	0.62684
31.6	0.625153
31.7	0.623473
31.8	0.621795
31.9	0.620123
32	0.61846
32.1	0.616802
32.2	0.615153
32.3	0.613506
32.4	0.611864
32.5	0.610228
32.6	0.608601
32.7	0.606979
32.8	0.605361
32.9	0.603748
33	0.602138
33.1	0.600529
33.2	0.598923
33.3	0.597319
33.4	0.595719
33.5	0.594121
33.6	0.592527
33.7	0.59094
33.8	0.589356
33.9	0.587777
34	0.586197
34.1	0.584618
34.2	0.583043
34.3	0.581478
34.4	0.579924
34.5	0.57838
34.6	0.57684
34.7	0.575304
34.8	0.573775
34.9	0.572251
35	0.570727
35.1	0.569211
35.2	0.567703
35.3	0.566201
35.4	0.564701
35.5	0.563207
35.6	0.561719
35.7	0.560231
35.8	0.558743
35.9	0.557259
36	0.555775
36.1	0.554296
36.2	0.552819
36.3	0.551342
36.4	0.549868
36.5	0.548395
36.6	0.546923
36.7	0.545459
36.8	0.544004
36.9	0.542562
37	0.541127
37.1	0.5397
37.2	0.538278
37.3	0.536857
37.4	0.535438
37.5	0.534023
37.6	0.532615
37.7	0.53121
37.8	0.529812
37.9	0.528413
38	0.527012
38.1	0.525611
38.2	0.524208
38.3	0.522807
38.4	0.521406
38.5	0.520008
38.6	0.518614
38.7	0.517226
38.8	0.515843
38.9	0.514469
39	0.513097
39.1	0.511726
39.2	0.510359
39.3	0.508998
39.4	0.507642
39.5	0.506284
39.6	0.504926
39.7	0.503565
39.8	0.502208
39.9	0.500856
40	0.499508
40.1	0.498169
40.2	0.496829
40.3	0.495497
40.4	0.494173
40.5	0.492853
40.6	0.491535
40.7	0.490223
40.8	0.488917
40.9	0.48762
41	0.486332
41.1	0.48505
41.2	0.48378
41.3	0.482514
41.4	0.481254
41.5	0.48
41.6	0.478752
41.7	0.477507
41.8	0.476271
41.9	0.47504
42	0.473815
42.1	0.472597
42.2	0.471385
42.3	0.470182
42.4	0.468983
42.5	0.467783
42.6	0.466585
42.7	0.465393
42.8	0.464207
42.9	0.463031
43	0.461863
43.1	0.460701
43.2	0.459543
43.3	0.458389
43.4	0.457241
43.5	0.456097
43.6	0.454958
43.7	0.45382
43.8	0.45268
43.9	0.451541
44	0.450403
44.1	0.44927
44.2	0.44814
44.3	0.447012
44.4	0.445885
44.5	0.444757
44.6	0.443635
44.7	0.442511
44.8	0.441384
44.9	0.440258
45	0.439134
45.1	0.438009
45.2	0.436884
45.3	0.435761
45.4	0.434642
45.5	0.433526
45.6	0.432418
45.7	0.431315
45.8	0.430216
45.9	0.429116
46	0.428016
46.1	0.426919
46.2	0.425828
46.3	0.424737
46.4	0.423644
46.5	0.422548
46.6	0.421457
46.7	0.42037
46.8	0.419293
46.9	0.418223
47	0.417156
47.1	0.416092
47.2	0.415028
47.3	0.413969
47.4	0.412908
47.5	0.411848
47.6	0.410788
47.7	0.409725
47.8	0.408664
47.9	0.40761
48	0.406563
48.1	0.405521
48.2	0.404476
48.3	0.403432
48.4	0.402394
48.5	0.401362
48.6	0.400332
48.7	0.399307
48.8	0.398285
48.9	0.39726
49	0.396238
49.1	0.395216
49.2	0.394192
49.3	0.393171
49.4	0.392159
49.5	0.391152
49.6	0.390145
49.7	0.389143
49.8	0.388145
49.9	0.387145
50	0.386144
50.1	0.385143
50.2	0.384141
50.3	0.383142
50.4	0.382145
50.5	0.381161
50.6	0.380189
50.7	0.379218
50.8	0.378245
50.9	0.377277
51	0.376316
51.1	0.375358
51.2	0.374399
51.3	0.373438
51.4	0.372481
51.5	0.37152
51.6	0.370557
51.7	0.369593
51.8	0.368631
51.9	0.36767
52	0.366706
52.1	0.365747
52.2	0.364793
52.3	0.363841
52.4	0.36289
52.5	0.361938
52.6	0.360985
52.7	0.360032
52.8	0.359084
52.9	0.358138
53	0.357191
53.1	0.356244
53.2	0.355297
53.3	0.354356
53.4	0.353416
53.5	0.352473
53.6	0.351529
53.7	0.350584
53.8	0.349643
53.9	0.348704
54	0.347772
54.1	0.346841
54.2	0.345913
54.3	0.344991
54.4	0.344075
54.5	0.343167
54.6	0.342266
54.7	0.341366
54.8	0.340466
54.9	0.33957
55	0.338681
55.1	0.3378
55.2	0.33692
55.3	0.336043
55.4	0.335164
55.5	0.334279
55.6	0.333391
55.7	0.332502
55.8	0.331616
55.9	0.330735
56	0.329856
56.1	0.328982
56.2	0.328115
56.3	0.327251
56.4	0.326386
56.5	0.325515
56.6	0.324646
56.7	0.323782
56.8	0.322923
56.9	0.322062
57	0.321197
57.1	0.32033
57.2	0.319466
57.3	0.318602
57.4	0.317741
57.5	0.316874
57.6	0.316006
57.7	0.31514
57.8	0.31427
57.9	0.313399
58	0.312528
58.1	0.311659
58.2	0.310792
58.3	0.309926
58.4	0.309063
58.5	0.308203
58.6	0.307351
58.7	0.306506
58.8	0.305669
58.9	0.304836
59	0.304011
59.1	0.303188
59.2	0.302358
59.3	0.301525
59.4	0.300695
59.5	0.299868
59.6	0.29905
59.7	0.298236
59.8	0.297421
59.9	0.296605
60	0.295792
60.1	0.294983
60.2	0.294172
60.3	0.293364
60.4	0.292561
60.5	0.291763
60.6	0.290972
60.7	0.29018
60.8	0.289389
60.9	0.288601
61	0.287819
61.1	0.287039
61.2	0.286259
61.3	0.285482
61.4	0.284701
61.5	0.283921
61.6	0.283141
61.7	0.282361
61.8	0.281583
61.9	0.28081
62	0.280043
62.1	0.279279
62.2	0.278514
62.3	0.27775
62.4	0.276983
62.5	0.276214
62.6	0.275446
62.7	0.274679
62.8	0.273918
62.9	0.273164
63	0.272414
63.1	0.271659
63.2	0.270895
63.3	0.270125
63.4	0.269353
63.5	0.268583
63.6	0.267809
63.7	0.267038
63.8	0.266266
63.9	0.265496
64	0.264732
64.1	0.263971
64.2	0.263208
64.3	0.262447
64.4	0.261692
64.5	0.260943
64.6	0.260202
64.7	0.259466
64.8	0.258735
64.9	0.258011
65	0.257291
65.1	0.256572
65.2	0.255851
65.3	0.255129
65.4	0.254413
65.5	0.253696
65.6	0.25298
65.7	0.252264
65.8	0.251544
65.9	0.250823
66	0.250111
66.1	0.249399
66.2	0.248685
66.3	0.247971
66.4	0.247257
66.5	0.24655
66.6	0.245853
66.7	0.245156
66.8	0.24446
66.9	0.243769
67	0.243081
67.1	0.242394
67.2	0.241709
67.3	0.241026
67.4	0.240346
67.5	0.239668
67.6	0.238993
67.7	0.23832
67.8	0.237648
67.9	0.236984
68	0.236317
68.1	0.235649
68.2	0.234979
68.3	0.234311
68.4	0.233646
68.5	0.232986
68.6	0.232332
68.7	0.231681
68.8	0.23103
68.9	0.230382
69	0.229734
69.1	0.229091
69.2	0.228451
69.3	0.227814
69.4	0.227183
69.5	0.226557
69.6	0.225935
69.7	0.22531
69.8	0.224683
69.9	0.224052
70	0.223423
70.1	0.222798
70.2	0.22218
70.3	0.221564
70.4	0.220956
70.5	0.220356
70.6	0.219767
70.7	0.219181
70.8	0.218597
70.9	0.218014
71	0.21743
71.1	0.216841
71.2	0.216248
71.3	0.215653
71.4	0.215058
71.5	0.214466
71.6	0.213874
71.7	0.213286
71.8	0.212704
71.9	0.212122
72	0.211544
72.1	0.210965
72.2	0.210388
72.3	0.209807
72.4	0.209229
72.5	0.208653
72.6	0.208078
72.7	0.207505
72.8	0.206932
72.9	0.206366
73	0.205806
73.1	0.205251
73.2	0.2047
73.3	0.204153
73.4	0.203602
73.5	0.203054
73.6	0.202509
73.7	0.201964
73.8	0.201422
73.9	0.20088
74	0.200341
74.1	0.1998
74.2	0.199257
74.3	0.198711
74.4	0.198167
74.5	0.197623
74.6	0.19708
74.7	0.196542
74.8	0.196005
74.9	0.195472
75	0.194946
75.1	0.194424
75.2	0.193906
75.3	0.193384
75.4	0.192861
75.5	0.192332
75.6	0.191797
75.7	0.191259
75.8	0.190723
75.9	0.190191
76	0.189662
76.1	0.189135
76.2	0.188606
76.3	0.188083
76.4	0.187566
76.5	0.187057
76.6	0.186544
76.7	0.186026
76.8	0.185506
76.9	0.184988
77	0.18447
77.1	0.183955
77.2	0.183444
77.3	0.182935
77.4	0.182429
77.5	0.18193
77.6	0.181432
77.7	0.180934
77.8	0.180435
77.9	0.179933
78	0.179431
78.1	0.178929
78.2	0.178427
78.3	0.177925
78.4	0.177424
78.5	0.176924
78.6	0.176434
78.7	0.175946
78.8	0.175462
78.9	0.174983
79	0.174513
79.1	0.174052
79.2	0.173594
79.3	0.173133
79.4	0.17267
79.5	0.172203
79.6	0.171731
79.7	0.171261
79.8	0.170791
79.9	0.170325
80	0.169861
80.1	0.1694
80.2	0.168944
80.3	0.168492
80.4	0.168044
80.5	0.1676
80.6	0.167159
80.7	0.166713
80.8	0.166267
80.9	0.165815
81	0.165362
81.1	0.164907
81.2	0.164453
81.3	0.163998
81.4	0.163549
81.5	0.163103
81.6	0.162665
81.7	0.16223
81.8	0.161798
81.9	0.161366
82	0.160934
82.1	0.160498
82.2	0.160064
82.3	0.159632
82.4	0.159206
82.5	0.158786
82.6	0.158374
82.7	0.15797
82.8	0.157573
82.9	0.157175
83	0.156774
83.1	0.156373
83.2	0.155968
83.3	0.155566
83.4	0.155169
83.5	0.154778
83.6	0.154385
83.7	0.15399
83.8	0.153592
83.9	0.15319
84	0.15279
84.1	0.152391
84.2	0.151995
84.3	0.151599
84.4	0.151203
84.5	0.150808
84.6	0.150418
84.7	0.150032
84.8	0.149652
84.9	0.149272
85	0.14889
85.1	0.148509
85.2	0.148125
85.3	0.14774
85.4	0.147363
85.5	0.146984
85.6	0.146602
85.7	0.146216
85.8	0.145832
85.9	0.145452
86	0.145074
86.1	0.144693
86.2	0.144309
86.3	0.143929
86.4	0.14355
86.5	0.143175
86.6	0.142803
86.7	0.142427
86.8	0.14205
86.9	0.141675
87	0.1413
87.1	0.140925
87.2	0.140552
87.3	0.140177
87.4	0.139801
87.5	0.139426
87.6	0.139045
87.7	0.138665
87.8	0.138287
87.9	0.137911
88	0.137536
88.1	0.13716
88.2	0.136782
88.3	0.136403
88.4	0.136027
88.5	0.135652
88.6	0.135278
88.7	0.134904
88.8	0.134529
88.9	0.134153
89	0.133781
89.1	0.133413
89.2	0.133045
89.3	0.132678
89.4	0.132309
89.5	0.131939
89.6	0.131566
89.7	0.131195
89.8	0.130821
89.9	0.130453
90	0.130087
90.1	0.12972
90.2	0.129354
90.3	0.128987
90.4	0.12862
90.5	0.128259
90.6	0.127903
90.7	0.12755
90.8	0.127198
90.9	0.126845
91	0.12649
91.1	0.126135
91.2	0.125784
91.3	0.125437
91.4	0.125091
91.5	0.124747
91.6	0.124405
91.7	0.12406
91.8	0.123715
91.9	0.123371
92	0.123024
92.1	0.122676
92.2	0.12232
92.3	0.121971
92.4	0.121627
92.5	0.121284
92.6	0.12094
92.7	0.120592
92.8	0.120237
92.9	0.119882
93	0.119528
93.1	0.119177
93.2	0.118828
93.3	0.118475
93.4	0.118115
93.5	0.117754
93.6	0.117395
93.7	0.117044
93.8	0.116699
93.9	0.116356
94	0.116013
94.1	0.115664
94.2	0.115318
94.3	0.114974
94.4	0.114631
94.5	0.114288
94.6	0.113943
94.7	0.113596
94.8	0.113248
94.9	0.112901
95	0.11255
95.1	0.1122
95.2	0.111857
95.3	0.111516
95.4	0.11118
95.5	0.110845
95.6	0.110512
95.7	0.110178
95.8	0.109843
95.9	0.10951
96	0.109177
96.1	0.108844
96.2	0.108514
96.3	0.108182
96.4	0.10785
96.5	0.107517
96.6	0.107183
96.7	0.10685
96.8	0.106513
96.9	0.106175
97	0.105832
97.1	0.105489
97.2	0.10514
97.3	0.104786
97.4	0.104433
97.5	0.104081
97.6	0.103724
97.7	0.103367
97.8	0.103009
97.9	0.102654
98	0.102305
98.1	0.101954
98.2	0.101604
98.3	0.101256
98.4	0.100907
98.5	0.100563
98.6	0.100222
98.7	0.0998818
98.8	0.0995454
98.9	0.099209
99	0.0988746
99.1	0.0985445
99.2	0.098221
99.3	0.0979037
99.4	0.0975918
99.5	0.0972797
99.6	0.0969689
99.7	0.0966578
99.8	0.0963433
99.9	0.0960298
100	0.0957132
100.1	0.0953954
100.2	0.095076
100.3	0.094753
100.4	0.0944322
100.5	0.0941172
100.6	0.0938022
100.7	0.093486
100.8	0.093166
100.9	0.0928422
101	0.0925156
101.1	0.0921879
101.2	0.0918595
101.3	0.0915292
101.4	0.0911977
101.5	0.0908663
101.6	0.0905381
101.7	0.0902142
101.8	0.0898941
101.9	0.089575
102	0.0892566
102.1	0.0889381
102.2	0.0886225
102.3	0.088306
102.4	0.0879878
102.5	0.0876704
102.6	0.0873564
102.7	0.0870457
102.8	0.0867389
102.9	0.0864329
103	0.0861351
103.1	0.0858407
103.2	0.0855423
103.3	0.0852422
103.4	0.0849402
103.5	0.0846389
103.6	0.084342
103.7	0.0840454
103.8	0.0837546
103.9	0.0834666
104	0.0831827
104.1	0.0828979
104.2	0.0826132
104.3	0.082327
104.4	0.08204
104.5	0.081757
104.6	0.0814789
104.7	0.0812042
104.8	0.0809301
104.9	0.0806569
105	0.0803856
105.1	0.0801195
105.2	0.0798517
105.3	0.0795836
105.4	0.0793142
105.5	0.0790443
105.6	0.078772
105.7	0.0785041
105.8	0.0782349
105.9	0.0779685
106	0.0776978
106.1	0.0774304
106.2	0.0771639
106.3	0.0769005
106.4	0.0766405
106.5	0.0763798
106.6	0.0761195
106.7	0.0758599
106.8	0.0755947
106.9	0.0753257
107	0.0750541
107.1	0.0747745
107.2	0.0744928
107.3	0.0742142
107.4	0.0739383
107.5	0.0736641
107.6	0.073391
107.7	0.0731239
107.8	0.0728628
107.9	0.0726057
108	0.0723499
108.1	0.0720884
108.2	0.0718278
108.3	0.0715707
108.4	0.0713167
108.5	0.0710684
108.6	0.0708279
108.7	0.0705847
108.8	0.070341
108.9	0.0700999
109	0.0698547
109.1	0.0696055
109.2	0.069363
109.3	0.0691224
109.4	0.0688863
109.5	0.068644
109.6	0.068402
109.7	0.0681581
109.8	0.0679156
109.9	0.0676786
110	0.0674424
110.1	0.0672075
110.2	0.0669718
110.3	0.0667318
110.4	0.0664967
110.5	0.0662658
110.6	0.0660431
110.7	0.065824
110.8	0.0656105
110.9	0.0653971
111	0.0651834
111.1	0.0649703
111.2	0.0647611
111.3	0.064554
111.4	0.0643522
111.5	0.0641485
111.6	0.0639421
111.7	0.0637414
111.8	0.063542
111.9	0.0633393
112	0.0631357
112.1	0.0629327
112.2	0.0627293
112.3	0.0625268
112.4	0.0623291
112.5	0.0621328
112.6	0.0619401
112.7	0.0617477
112.8	0.061555
112.9	0.0613632
113	0.0611754
113.1	0.060986
113.2	0.0607961
113.3	0.0606062
113.4	0.0604143
113.5	0.0602253
113.6	0.0600402
113.7	0.059856
113.8	0.0596771
113.9	0.0595037
114	0.0593319
114.1	0.0591564
114.2	0.0589841
114.3	0.0588101
114.4	0.0586389
114.5	0.0584694
114.6	0.0582985
114.7	0.0581279
114.8	0.0579585
114.9	0.0577866
115	0.0576119
115.1	0.0574323
115.2	0.0572518
115.3	0.0570715
115.4	0.0568898
115.5	0.0567039
115.6	0.0565171
115.7	0.0563278
115.8	0.0561387
115.9	0.0559462
116	0.0557523
116.1	0.0555617
116.2	0.05537
116.3	0.0551783
116.4	0.0549875
116.5	0.0547945
116.6	0.0545963
116.7	0.0543975
116.8	0.0541986
116.9	0.0540008
117	0.0538034
117.1	0.0536079
117.2	0.0534081
117.3	0.0532021
117.4	0.0529992
117.5	0.0527969
117.6	0.0525959
117.7	0.0523957
117.8	0.0521932
117.9	0.0519864
118	0.0517802
118.1	0.0515774
118.2	0.0513797
118.3	0.0511865
118.4	0.0509978
118.5	0.0508107
118.6	0.0506251
118.7	0.0504398
118.8	0.0502552
118.9	0.0500769
119	0.0499039
119.1	0.0497352
119.2	0.0495684
119.3	0.0494029
119.4	0.0492382
119.5	0.0490763
119.6	0.0489152
119.7	0.0487547
119.8	0.048592
119.9	0.0484261
120	0.0482549
120.1	0.048077
120.2	0.047894
120.3	0.0477087
120.4	0.0475247
120.5	0.0473391
120.6	0.0471528
120.7	0.0469628
120.8	0.0467751
120.9	0.046587
121	0.0463985
121.1	0.0462118
121.2	0.0460277
121.3	0.045846
121.4	0.045669
121.5	0.045493
121.6	0.0453202
121.7	0.0451512
121.8	0.0449816
121.9	0.0448094
122	0.0446366
122.1	0.0444644
122.2	0.0442957
122.3	0.0441285
122.4	0.043959
122.5	0.0437882
122.6	0.0436167
122.7	0.0434494
122.8	0.0432839
122.9	0.0431174
123	0.0429481
123.1	0.0427791
123.2	0.0426088
123.3	0.0424397
123.4	0.0422688
123.5	0.0420972
123.6	0.0419357
123.7	0.0417809
123.8	0.0416307
123.9	0.0414844
124	0.0413422
124.1	0.0412041
124.2	0.0410639
124.3	0.0409183
124.4	0.040771
124.5	0.0406208
124.6	0.0404652
124.7	0.0403089
124.8	0.0401606
124.9	0.0400173
125	0.0398791
125.1	0.0397397
125.2	0.0395996
125.3	0.0394609
125.4	0.0393216
125.5	0.0391903
125.6	0.039058
125.7	0.0389217
125.8	0.0387851
125.9	0.0386514
126	0.0385179
126.1	0.0383822
126.2	0.038246
126.3	0.038112
126.4	0.0379757
126.5	0.0378409
126.6	0.037708
126.7	0.0375791
126.8	0.0374522
126.9	0.0373277
127	0.0372061
127.1	0.0370855
127.2	0.0369653
127.3	0.0368493
127.4	0.0367333
127.5	0.0366148
127.6	0.0364893
127.7	0.0363656
127.8	0.0362447
127.9	0.0361234
128	0.0360054
128.1	0.035885
128.2	0.0357658
128.3	0.0356445
128.4	0.0355207
128.5	0.0353963
128.6	0.0352754
128.7	0.0351511
128.8	0.0350227
128.9	0.034894
129	0.0347686
129.1	0.0346412
129.2	0.034513
129.3	0.0343827
129.4	0.0342479
129.5	0.034113
129.6	0.0339805
129.7	0.0338481
129.8	0.0337183
129.9	0.0335952
130	0.0334739
130.1	0.0333493
130.2	0.033222
130.3	0.0330915
130.4	0.0329605
130.5	0.0328292
130.6	0.0326967
130.7	0.0325642
130.8	0.0324327
130.9	0.0323001
131	0.032165
131.1	0.0320344
131.2	0.0319102
131.3	0.0317873
131.4	0.0316702
131.5	0.0315596
131.6	0.0314514
131.7	0.0313473
131.8	0.0312462
131.9	0.0311461
132	0.0310467
132.1	0.0309464
132.2	0.0308437
132.3	0.0307386
132.4	0.0306315
132.5	0.0305221
132.6	0.0304107
132.7	0.0302987
132.8	0.0301847
132.9	0.0300738
133	0.0299622
133.1	0.029852
133.2	0.0297392
133.3	0.0296302
133.4	0.0295212
133.5	0.0294086
133.6	0.0292963
133.7	0.029187
133.8	0.0290763
133.9	0.0289653
134	0.0288594
134.1	0.0287537
134.2	0.0286478
134.3	0.0285411
134.4	0.0284359
134.5	0.0283305
134.6	0.0282275
134.7	0.0281209
134.8	0.0280136
134.9	0.0279083
135	0.0278065
135.1	0.0277082
135.2	0.0276062
135.3	0.0275062
135.4	0.0274088
135.5	0.0273151
135.6	0.0272181
135.7	0.0271193
135.8	0.0270153
135.9	0.0269057
136	0.0267889
136.1	0.0266717
136.2	0.0265558
136.3	0.0264372
136.4	0.0263117
136.5	0.0261787
136.6	0.0260418
136.7	0.0259046
136.8	0.0257639
136.9	0.0256249
137	0.0254866
137.1	0.0253497
137.2	0.0252155
137.3	0.0250781
137.4	0.0249399
137.5	0.0247992
137.6	0.0246566
137.7	0.0245096
137.8	0.0243615
137.9	0.0242148
138	0.0240732
138.1	0.0239335
138.2	0.0237947
138.3	0.023657
138.4	0.0235177
138.5	0.0233745
138.6	0.0232279
138.7	0.0230823
138.8	0.0229395
138.9	0.0227971
139	0.0226509
139.1	0.0225091
139.2	0.0223648
139.3	0.0222197
139.4	0.0220755
139.5	0.0219313
139.6	0.0217874
139.7	0.021643
139.8	0.0214988
139.9	0.0213584
140	0.0212164
140.1	0.0210746
140.2	0.0209306
140.3	0.0207928
140.4	0.0206623
140.5	0.020537
140.6	0.0204198
140.7	0.0203025
140.8	0.0201901
140.9	0.0200797
141	0.0199677
141.1	0.019855
141.2	0.019748
141.3	0.0196421
141.4	0.0195349
141.5	0.019427
141.6	0.0193126
