LagTime	Correlation

0	1.80281
0.1	1.7978
0.2	1.79031
0.3	1.78226
0.4	1.77411
0.5	1.76599
0.6	1.75792
0.7	1.74993
0.8	1.742
0.9	1.73414
1	1.72634
1.1	1.71861
1.2	1.71095
1.3	1.70334
1.4	1.69579
1.5	1.68831
1.6	1.68088
1.7	1.67352
1.8	1.66622
1.9	1.65899
2	1.65181
2.1	1.64469
2.2	1.63763
2.3	1.63063
2.4	1.62369
2.5	1.6168
2.6	1.60996
2.7	1.60317
2.8	1.59643
2.9	1.58975
3	1.58311
3.1	1.57652
3.2	1.56998
3.3	1.56349
3.4	1.55705
3.5	1.55067
3.6	1.54433
3.7	1.53805
3.8	1.53181
3.9	1.52562
4	1.51947
4.1	1.51337
4.2	1.50731
4.3	1.50129
4.4	1.49532
4.5	1.48938
4.6	1.48348
4.7	1.47762
4.8	1.47181
4.9	1.46603
5	1.46029
5.1	1.45459
5.2	1.44893
5.3	1.4433
5.4	1.43772
5.5	1.43218
5.6	1.42667
5.7	1.42121
5.8	1.41578
5.9	1.4104
6	1.40505
6.1	1.39975
6.2	1.39448
6.3	1.38924
6.4	1.38404
6.5	1.37888
6.6	1.37376
6.7	1.36867
6.8	1.36362
6.9	1.3586
7	1.35361
7.1	1.34866
7.2	1.34374
7.3	1.33885
7.4	1.33401
7.5	1.32919
7.6	1.32441
7.7	1.31965
7.8	1.31492
7.9	1.31022
8	1.30554
8.1	1.30089
8.2	1.29627
8.3	1.29168
8.4	1.28711
8.5	1.28257
8.6	1.27805
8.7	1.27356
8.8	1.26909
8.9	1.26465
9	1.26023
9.1	1.25585
9.2	1.25149
9.3	1.24716
9.4	1.24285
9.5	1.23856
9.6	1.2343
9.7	1.23006
9.8	1.22586
9.9	1.22169
10	1.21753
10.1	1.21341
10.2	1.20931
10.3	1.20524
10.4	1.2012
10.5	1.19719
10.6	1.19319
10.7	1.18922
10.8	1.18525
10.9	1.1813
11	1.17737
11.1	1.17345
11.2	1.16956
11.3	1.16568
11.4	1.16183
11.5	1.15801
11.6	1.15421
11.7	1.15043
11.8	1.14667
11.9	1.14294
12	1.13922
12.1	1.13553
12.2	1.13185
12.3	1.12818
12.4	1.12454
12.5	1.12092
12.6	1.11731
12.7	1.11373
12.8	1.11015
12.9	1.1066
13	1.10305
13.1	1.09953
13.2	1.09601
13.3	1.09251
13.4	1.08903
13.5	1.08558
13.6	1.08214
13.7	1.07872
13.8	1.07531
13.9	1.07192
14	1.06855
14.1	1.0652
14.2	1.06187
14.3	1.05855
14.4	1.05524
14.5	1.05195
14.6	1.04868
14.7	1.04542
14.8	1.04218
14.9	1.03896
15	1.03576
15.1	1.03257
15.2	1.02939
15.3	1.02623
15.4	1.02309
15.5	1.01998
15.6	1.01688
15.7	1.0138
15.8	1.01074
15.9	1.0077
16	1.00467
16.1	1.00166
16.2	0.998662
16.3	0.995676
16.4	0.99271
16.5	0.989757
16.6	0.986817
16.7	0.983888
16.8	0.980974
16.9	0.978073
17	0.975191
17.1	0.972329
17.2	0.969492
17.3	0.966678
17.4	0.963879
17.5	0.961096
17.6	0.958326
17.7	0.95557
17.8	0.952827
17.9	0.950099
18	0.947387
18.1	0.944687
18.2	0.941994
18.3	0.939309
18.4	0.936638
18.5	0.933975
18.6	0.93132
18.7	0.928674
18.8	0.926045
18.9	0.923431
19	0.920832
19.1	0.918245
19.2	0.91567
19.3	0.913106
19.4	0.910555
19.5	0.908013
19.6	0.905481
19.7	0.902959
19.8	0.900447
19.9	0.897945
20	0.895455
20.1	0.892976
20.2	0.890512
20.3	0.888057
20.4	0.885605
20.5	0.88316
20.6	0.880725
20.7	0.8783
20.8	0.875887
20.9	0.873481
21	0.871083
21.1	0.868686
21.2	0.866297
21.3	0.863918
21.4	0.861546
21.5	0.859175
21.6	0.856809
21.7	0.854447
21.8	0.852093
21.9	0.849747
22	0.847409
22.1	0.845087
22.2	0.842775
22.3	0.840473
22.4	0.83818
22.5	0.835893
22.6	0.833618
22.7	0.831358
22.8	0.82911
22.9	0.826872
23	0.824646
23.1	0.822432
23.2	0.820225
23.3	0.818022
23.4	0.81582
23.5	0.813623
23.6	0.811432
23.7	0.809249
23.8	0.80707
23.9	0.804901
24	0.802736
24.1	0.800577
24.2	0.79843
24.3	0.796292
24.4	0.794162
24.5	0.792039
24.6	0.789923
24.7	0.787812
24.8	0.785703
24.9	0.783597
25	0.781499
25.1	0.779415
25.2	0.777342
25.3	0.775277
25.4	0.773221
25.5	0.771171
25.6	0.76913
25.7	0.767095
25.8	0.765062
25.9	0.763031
26	0.761007
26.1	0.758987
26.2	0.756971
26.3	0.754952
26.4	0.752935
26.5	0.750922
26.6	0.748921
26.7	0.746923
26.8	0.744932
26.9	0.74295
27	0.740978
27.1	0.739008
27.2	0.737045
27.3	0.735087
27.4	0.733134
27.5	0.731187
27.6	0.729246
27.7	0.727317
27.8	0.725404
27.9	0.723503
28	0.721609
28.1	0.71972
28.2	0.717835
28.3	0.715956
28.4	0.714086
28.5	0.712225
28.6	0.710374
28.7	0.708534
28.8	0.706706
28.9	0.704883
29	0.703069
29.1	0.70126
29.2	0.699455
29.3	0.697656
29.4	0.69586
29.5	0.694066
29.6	0.692276
29.7	0.690492
29.8	0.688717
29.9	0.686947
30	0.68518
30.1	0.683419
30.2	0.681667
30.3	0.679922
30.4	0.678187
30.5	0.676461
30.6	0.674734
30.7	0.673008
30.8	0.671289
30.9	0.669582
31	0.667884
31.1	0.666192
31.2	0.664505
31.3	0.662827
31.4	0.66116
31.5	0.659504
31.6	0.657855
31.7	0.656206
31.8	0.654559
31.9	0.652911
32	0.651267
32.1	0.649624
32.2	0.647991
32.3	0.646368
32.4	0.644756
32.5	0.643146
32.6	0.641538
32.7	0.639936
32.8	0.638341
32.9	0.636749
33	0.635164
33.1	0.633582
33.2	0.632004
33.3	0.630427
33.4	0.62886
33.5	0.6273
33.6	0.625745
33.7	0.624192
33.8	0.622645
33.9	0.621101
34	0.619558
34.1	0.618021
34.2	0.616489
34.3	0.614957
34.4	0.613433
34.5	0.611912
34.6	0.610401
34.7	0.608896
34.8	0.607402
34.9	0.605912
35	0.60443
35.1	0.602953
35.2	0.601479
35.3	0.600008
35.4	0.598542
35.5	0.597086
35.6	0.595636
35.7	0.594191
35.8	0.592745
35.9	0.591303
36	0.589867
36.1	0.588435
36.2	0.587009
36.3	0.585587
36.4	0.584173
36.5	0.582762
36.6	0.581357
36.7	0.57996
36.8	0.57857
36.9	0.577183
37	0.575798
37.1	0.574414
37.2	0.573033
37.3	0.571659
37.4	0.570285
37.5	0.568915
37.6	0.567548
37.7	0.566184
37.8	0.564822
37.9	0.563464
38	0.562108
38.1	0.560758
38.2	0.559408
38.3	0.558058
38.4	0.556709
38.5	0.555365
38.6	0.554022
38.7	0.552686
38.8	0.551351
38.9	0.550015
39	0.548684
39.1	0.54736
39.2	0.54604
39.3	0.544727
39.4	0.543421
39.5	0.542118
39.6	0.540821
39.7	0.539528
39.8	0.538238
39.9	0.536955
40	0.535672
40.1	0.534386
40.2	0.533103
40.3	0.531827
40.4	0.530558
40.5	0.529297
40.6	0.528039
40.7	0.526783
40.8	0.525529
40.9	0.524282
41	0.523038
41.1	0.521797
41.2	0.520555
41.3	0.519312
41.4	0.51807
41.5	0.516833
41.6	0.515604
41.7	0.514377
41.8	0.513155
41.9	0.511937
42	0.510725
42.1	0.509514
42.2	0.508303
42.3	0.5071
42.4	0.5059
42.5	0.504707
42.6	0.503526
42.7	0.502354
42.8	0.501187
42.9	0.50003
43	0.49888
43.1	0.497732
43.2	0.496584
43.3	0.495435
43.4	0.494282
43.5	0.493132
43.6	0.491983
43.7	0.490841
43.8	0.489703
43.9	0.48857
44	0.487438
44.1	0.486309
44.2	0.48518
44.3	0.484053
44.4	0.482929
44.5	0.481805
44.6	0.480681
44.7	0.479554
44.8	0.47843
44.9	0.47731
45	0.476192
45.1	0.475078
45.2	0.473967
45.3	0.472855
45.4	0.471746
45.5	0.470636
45.6	0.469526
45.7	0.468413
45.8	0.467291
45.9	0.466169
46	0.465049
46.1	0.463931
46.2	0.462821
46.3	0.461719
46.4	0.460624
46.5	0.459531
46.6	0.458443
46.7	0.457361
46.8	0.456284
46.9	0.455212
47	0.454142
47.1	0.453072
47.2	0.452004
47.3	0.450936
47.4	0.449871
47.5	0.448806
47.6	0.447746
47.7	0.446689
47.8	0.445635
47.9	0.444588
48	0.443544
48.1	0.442501
48.2	0.441465
48.3	0.440432
48.4	0.439399
48.5	0.438369
48.6	0.43734
48.7	0.436314
48.8	0.435287
48.9	0.434262
49	0.43324
49.1	0.432221
49.2	0.431198
49.3	0.430177
49.4	0.429156
49.5	0.428129
49.6	0.427099
49.7	0.426072
49.8	0.425047
49.9	0.42403
50	0.423019
50.1	0.422006
50.2	0.420997
50.3	0.419989
50.4	0.418986
50.5	0.417985
50.6	0.416983
50.7	0.415979
50.8	0.414974
50.9	0.413969
51	0.41297
51.1	0.411974
51.2	0.410981
51.3	0.409988
51.4	0.408996
51.5	0.408003
51.6	0.407011
51.7	0.406022
51.8	0.405035
51.9	0.404049
52	0.403064
52.1	0.402079
52.2	0.401094
52.3	0.400111
52.4	0.399132
52.5	0.398155
52.6	0.397184
52.7	0.396215
52.8	0.395245
52.9	0.394273
53	0.393299
53.1	0.392331
53.2	0.391371
53.3	0.390421
53.4	0.389478
53.5	0.38854
53.6	0.387602
53.7	0.386665
53.8	0.385734
53.9	0.384807
54	0.383884
54.1	0.382966
54.2	0.382051
54.3	0.381145
54.4	0.380241
54.5	0.379334
54.6	0.378423
54.7	0.377512
54.8	0.376609
54.9	0.375714
55	0.374823
55.1	0.373936
55.2	0.373052
55.3	0.372173
55.4	0.371297
55.5	0.370425
55.6	0.369557
55.7	0.368693
55.8	0.367832
55.9	0.366975
56	0.36612
56.1	0.365269
56.2	0.364419
56.3	0.363574
56.4	0.362739
56.5	0.361913
56.6	0.361093
56.7	0.360279
56.8	0.359469
56.9	0.358659
57	0.35785
57.1	0.35704
57.2	0.356229
57.3	0.355415
57.4	0.3546
57.5	0.353786
57.6	0.352973
57.7	0.352163
57.8	0.351358
57.9	0.350555
58	0.349751
58.1	0.348945
58.2	0.348139
58.3	0.347338
58.4	0.346542
58.5	0.345746
58.6	0.344951
58.7	0.344166
58.8	0.343384
58.9	0.342603
59	0.341821
59.1	0.341038
59.2	0.340248
59.3	0.339458
59.4	0.338672
59.5	0.337889
59.6	0.33711
59.7	0.336326
59.8	0.335545
59.9	0.334763
60	0.333993
60.1	0.333225
60.2	0.33246
60.3	0.331701
60.4	0.330942
60.5	0.33018
60.6	0.329413
60.7	0.32865
60.8	0.327889
60.9	0.327127
61	0.326364
61.1	0.325595
61.2	0.324821
61.3	0.324047
61.4	0.323272
61.5	0.322491
61.6	0.321707
61.7	0.320926
61.8	0.320151
61.9	0.319382
62	0.318619
62.1	0.317857
62.2	0.317094
62.3	0.316333
62.4	0.315575
62.5	0.314821
62.6	0.314071
62.7	0.313322
62.8	0.312574
62.9	0.311826
63	0.311076
63.1	0.310326
63.2	0.309576
63.3	0.308827
63.4	0.308079
63.5	0.307335
63.6	0.306593
63.7	0.305856
63.8	0.305125
63.9	0.304397
64	0.303674
64.1	0.302952
64.2	0.302232
64.3	0.301522
64.4	0.300821
64.5	0.300118
64.6	0.29941
64.7	0.298698
64.8	0.297988
64.9	0.297279
65	0.296569
65.1	0.295862
65.2	0.295156
65.3	0.294456
65.4	0.293755
65.5	0.293056
65.6	0.292363
65.7	0.291674
65.8	0.290985
65.9	0.290302
66	0.289629
66.1	0.288961
66.2	0.2883
66.3	0.28764
66.4	0.286983
66.5	0.286328
66.6	0.285675
66.7	0.285021
66.8	0.284369
66.9	0.283716
67	0.283059
67.1	0.2824
67.2	0.281744
67.3	0.281091
67.4	0.280442
67.5	0.279794
67.6	0.27915
67.7	0.278508
67.8	0.277868
67.9	0.277229
68	0.276592
68.1	0.275959
68.2	0.275327
68.3	0.27469
68.4	0.274051
68.5	0.273409
68.6	0.272767
68.7	0.272124
68.8	0.271486
68.9	0.270849
69	0.270217
69.1	0.269585
69.2	0.268954
69.3	0.268327
69.4	0.267706
69.5	0.267086
69.6	0.266468
69.7	0.265856
69.8	0.265248
69.9	0.264641
70	0.264031
70.1	0.263417
70.2	0.262802
70.3	0.26219
70.4	0.261576
70.5	0.260966
70.6	0.260354
70.7	0.259741
70.8	0.25913
70.9	0.258522
71	0.257916
71.1	0.257315
71.2	0.256718
71.3	0.256126
71.4	0.255533
71.5	0.254943
71.6	0.254357
71.7	0.253777
71.8	0.253199
71.9	0.252625
72	0.252046
72.1	0.251468
72.2	0.250885
72.3	0.250307
72.4	0.249728
72.5	0.24915
72.6	0.248575
72.7	0.248003
72.8	0.247433
72.9	0.246868
73	0.246304
73.1	0.245739
73.2	0.245176
73.3	0.244618
73.4	0.244068
73.5	0.243521
73.6	0.242976
73.7	0.242431
73.8	0.241889
73.9	0.241344
74	0.240795
74.1	0.240249
74.2	0.239705
74.3	0.239163
74.4	0.238621
74.5	0.238083
74.6	0.237549
74.7	0.237014
74.8	0.236485
74.9	0.235961
75	0.235435
75.1	0.234912
75.2	0.23439
75.3	0.233867
75.4	0.233343
75.5	0.23282
75.6	0.232301
75.7	0.231789
75.8	0.231286
75.9	0.230789
76	0.230291
76.1	0.229785
76.2	0.229274
76.3	0.228765
76.4	0.228256
76.5	0.227747
76.6	0.227239
76.7	0.226737
76.8	0.226238
76.9	0.225742
77	0.225251
77.1	0.224772
77.2	0.224297
77.3	0.223827
77.4	0.223358
77.5	0.222888
77.6	0.222424
77.7	0.221961
77.8	0.221496
77.9	0.221023
78	0.220548
78.1	0.220065
78.2	0.219579
78.3	0.219092
78.4	0.218609
78.5	0.218126
78.6	0.21765
78.7	0.217183
78.8	0.216725
78.9	0.21627
79	0.215813
79.1	0.215354
79.2	0.214894
79.3	0.21443
79.4	0.213965
79.5	0.213499
79.6	0.213034
79.7	0.212569
79.8	0.212102
79.9	0.211634
80	0.211165
80.1	0.210704
80.2	0.210249
80.3	0.209802
80.4	0.209359
80.5	0.208917
80.6	0.208478
80.7	0.208041
80.8	0.207604
80.9	0.207166
81	0.206728
81.1	0.206288
81.2	0.205846
81.3	0.205403
81.4	0.204963
81.5	0.204526
81.6	0.204092
81.7	0.203661
81.8	0.203233
81.9	0.202805
82	0.202374
82.1	0.201946
82.2	0.201516
82.3	0.201084
82.4	0.200651
82.5	0.200216
82.6	0.199776
82.7	0.199336
82.8	0.198896
82.9	0.198459
83	0.198025
83.1	0.197594
83.2	0.197167
83.3	0.196738
83.4	0.19631
83.5	0.195885
83.6	0.195461
83.7	0.195035
83.8	0.194609
83.9	0.194183
84	0.193753
84.1	0.193319
84.2	0.19288
84.3	0.192439
84.4	0.191994
84.5	0.191548
84.6	0.191104
84.7	0.190658
84.8	0.190206
84.9	0.18975
85	0.189295
85.1	0.188838
85.2	0.188378
85.3	0.187926
85.4	0.187473
85.5	0.187021
85.6	0.186572
85.7	0.186123
85.8	0.185678
85.9	0.185232
86	0.184786
86.1	0.18434
86.2	0.183896
86.3	0.183447
86.4	0.182993
86.5	0.182541
86.6	0.182086
86.7	0.181637
86.8	0.181195
86.9	0.180758
87	0.180316
87.1	0.179882
87.2	0.179447
87.3	0.179011
87.4	0.178579
87.5	0.17815
87.6	0.177729
87.7	0.17731
87.8	0.17689
87.9	0.17647
88	0.176056
88.1	0.17564
88.2	0.17523
88.3	0.174834
88.4	0.174442
88.5	0.174058
88.6	0.173678
88.7	0.173299
88.8	0.172918
88.9	0.172534
89	0.172148
89.1	0.171759
89.2	0.171372
89.3	0.170986
89.4	0.170596
89.5	0.170201
89.6	0.169807
89.7	0.169409
89.8	0.169011
89.9	0.168605
90	0.168191
90.1	0.167778
90.2	0.167361
90.3	0.166945
90.4	0.166529
90.5	0.166118
90.6	0.165711
90.7	0.165311
90.8	0.164915
90.9	0.164523
91	0.164133
91.1	0.163738
91.2	0.16334
91.3	0.162943
91.4	0.162549
91.5	0.162155
91.6	0.161766
91.7	0.161383
91.8	0.161001
91.9	0.160618
92	0.160236
92.1	0.159855
92.2	0.159478
92.3	0.159101
92.4	0.158725
92.5	0.158354
92.6	0.157988
92.7	0.157631
92.8	0.157275
92.9	0.156922
93	0.156571
93.1	0.156221
93.2	0.15587
93.3	0.155522
93.4	0.155173
93.5	0.154826
93.6	0.154482
93.7	0.154138
93.8	0.153794
93.9	0.15345
94	0.153107
94.1	0.152765
94.2	0.152424
94.3	0.152085
94.4	0.151752
94.5	0.151426
94.6	0.151112
94.7	0.150805
94.8	0.150495
94.9	0.150186
95	0.149881
95.1	0.149576
95.2	0.149275
95.3	0.148975
95.4	0.148674
95.5	0.148372
95.6	0.14807
95.7	0.147768
95.8	0.147471
95.9	0.147181
96	0.146899
96.1	0.146616
96.2	0.146334
96.3	0.146055
96.4	0.145773
96.5	0.145492
96.6	0.145215
96.7	0.14494
96.8	0.144667
96.9	0.144395
97	0.14412
97.1	0.143837
97.2	0.143553
97.3	0.143267
97.4	0.142978
97.5	0.142686
97.6	0.14239
97.7	0.142094
97.8	0.141789
97.9	0.14148
98	0.141165
98.1	0.140845
98.2	0.140528
98.3	0.140213
98.4	0.139901
98.5	0.139588
98.6	0.139275
98.7	0.138965
98.8	0.13866
98.9	0.138361
99	0.138063
99.1	0.137764
99.2	0.137465
99.3	0.137168
99.4	0.136871
99.5	0.136571
99.6	0.136269
99.7	0.135966
99.8	0.135663
99.9	0.135357
100	0.13505
100.1	0.134752
100.2	0.134458
100.3	0.134167
100.4	0.133878
100.5	0.13359
100.6	0.133307
100.7	0.133027
100.8	0.132746
100.9	0.132461
101	0.132174
101.1	0.131884
101.2	0.131596
101.3	0.131315
101.4	0.131038
101.5	0.130765
101.6	0.130495
101.7	0.130225
101.8	0.129957
101.9	0.129695
102	0.129438
102.1	0.129182
102.2	0.128928
102.3	0.128672
102.4	0.128413
102.5	0.12815
102.6	0.127881
102.7	0.127611
102.8	0.127341
102.9	0.127077
103	0.126822
103.1	0.126574
103.2	0.126325
103.3	0.126076
103.4	0.125828
103.5	0.125577
103.6	0.125325
103.7	0.125075
103.8	0.124825
103.9	0.124575
104	0.124327
104.1	0.124077
104.2	0.123825
104.3	0.123567
104.4	0.123307
104.5	0.123046
104.6	0.122788
104.7	0.122531
104.8	0.122272
104.9	0.122011
105	0.121745
105.1	0.121481
105.2	0.12121
105.3	0.120935
105.4	0.120658
105.5	0.120382
105.6	0.120111
105.7	0.119844
105.8	0.119577
105.9	0.11931
106	0.119046
106.1	0.118785
106.2	0.118527
106.3	0.118272
106.4	0.118017
106.5	0.117763
106.6	0.117507
106.7	0.117246
106.8	0.116983
106.9	0.116721
107	0.11646
107.1	0.1162
107.2	0.115941
107.3	0.11569
107.4	0.115447
107.5	0.115207
107.6	0.114971
107.7	0.114737
107.8	0.114505
107.9	0.114274
108	0.114041
108.1	0.113808
108.2	0.113577
108.3	0.113348
108.4	0.113116
108.5	0.112887
108.6	0.112662
108.7	0.112439
108.8	0.112217
108.9	0.111997
109	0.111779
109.1	0.111562
109.2	0.111345
109.3	0.111129
109.4	0.110914
109.5	0.1107
109.6	0.110482
109.7	0.110266
109.8	0.110046
109.9	0.109824
110	0.109592
110.1	0.109358
110.2	0.109122
110.3	0.108884
110.4	0.108647
110.5	0.108408
110.6	0.108173
110.7	0.107934
110.8	0.107699
110.9	0.107462
111	0.107226
111.1	0.106994
111.2	0.106765
111.3	0.106529
111.4	0.106293
111.5	0.106064
111.6	0.105836
111.7	0.105612
111.8	0.105388
111.9	0.105164
112	0.104942
112.1	0.104717
112.2	0.104494
112.3	0.10427
112.4	0.104048
112.5	0.103828
112.6	0.103606
112.7	0.103387
112.8	0.103171
112.9	0.10295
113	0.102728
113.1	0.102506
113.2	0.102282
113.3	0.102057
113.4	0.101832
113.5	0.101613
113.6	0.101401
113.7	0.101192
113.8	0.100976
113.9	0.100754
114	0.10053
114.1	0.100311
114.2	0.100094
114.3	0.099884
114.4	0.0996769
114.5	0.0994714
114.6	0.0992692
114.7	0.0990698
114.8	0.0988764
114.9	0.0986842
115	0.0984928
115.1	0.0982996
115.2	0.0981049
115.3	0.0979174
115.4	0.0977299
115.5	0.0975395
115.6	0.0973464
115.7	0.097153
115.8	0.0969609
115.9	0.0967704
116	0.096584
116.1	0.0964006
116.2	0.0962242
116.3	0.0960508
116.4	0.0958784
116.5	0.0957011
116.6	0.09552
116.7	0.0953373
116.8	0.0951566
116.9	0.0949777
117	0.0947993
117.1	0.0946188
117.2	0.0944355
117.3	0.0942568
117.4	0.0940754
117.5	0.0938927
117.6	0.0937117
117.7	0.0935334
117.8	0.0933574
117.9	0.0931812
118	0.092999
118.1	0.0928097
118.2	0.0926222
118.3	0.0924349
118.4	0.0922483
118.5	0.0920643
118.6	0.0918805
118.7	0.0916979
118.8	0.0915136
118.9	0.0913276
119	0.0911453
119.1	0.0909684
119.2	0.0907936
119.3	0.09062
119.4	0.0904461
119.5	0.0902752
119.6	0.0901049
119.7	0.0899331
119.8	0.0897649
119.9	0.0895985
120	0.089432
120.1	0.0892633
120.2	0.0890973
120.3	0.0889318
120.4	0.0887702
120.5	0.0886116
120.6	0.0884569
120.7	0.0883051
120.8	0.0881525
120.9	0.0879998
121	0.087851
121.1	0.0877061
121.2	0.0875638
121.3	0.0874244
121.4	0.0872795
121.5	0.0871311
121.6	0.0869787
121.7	0.086829
121.8	0.0866782
121.9	0.0865269
122	0.0863783
122.1	0.0862292
122.2	0.0860756
122.3	0.0859246
122.4	0.0857773
122.5	0.0856342
122.6	0.0854931
122.7	0.0853527
122.8	0.085213
122.9	0.0850757
123	0.0849416
123.1	0.0848104
123.2	0.0846836
123.3	0.0845633
123.4	0.0844452
123.5	0.0843261
123.6	0.0842045
123.7	0.0840808
123.8	0.0839543
123.9	0.0838248
124	0.0836964
124.1	0.0835733
124.2	0.0834528
124.3	0.0833385
124.4	0.083227
124.5	0.0831168
124.6	0.0830069
124.7	0.0828964
124.8	0.0827871
124.9	0.0826822
125	0.0825764
125.1	0.0824659
125.2	0.0823552
125.3	0.0822401
125.4	0.0821239
125.5	0.0820054
125.6	0.081889
125.7	0.0817728
125.8	0.081659
125.9	0.0815441
126	0.0814282
126.1	0.0813102
126.2	0.081193
126.3	0.0810792
126.4	0.0809668
126.5	0.0808513
126.6	0.0807332
126.7	0.0806094
126.8	0.0804875
126.9	0.0803716
127	0.0802608
127.1	0.0801533
127.2	0.0800467
127.3	0.0799397
127.4	0.0798308
127.5	0.0797232
127.6	0.079617
127.7	0.0795101
127.8	0.0794003
127.9	0.0792825
128	0.0791618
128.1	0.0790398
128.2	0.0789185
128.3	0.0787956
128.4	0.0786719
128.5	0.0785533
128.6	0.078437
128.7	0.0783222
128.8	0.0782064
128.9	0.0780877
129	0.0779639
129.1	0.0778393
129.2	0.0777181
129.3	0.0776009
129.4	0.0774836
129.5	0.0773674
129.6	0.0772537
129.7	0.077146
129.8	0.0770404
129.9	0.0769313
130	0.0768204
130.1	0.0767054
130.2	0.0765933
130.3	0.0764871
130.4	0.076381
130.5	0.0762745
130.6	0.0761678
130.7	0.0760597
130.8	0.0759512
130.9	0.0758434
131	0.0757397
131.1	0.0756378
131.2	0.075537
131.3	0.0754386
131.4	0.075341
131.5	0.0752386
131.6	0.0751348
131.7	0.0750308
131.8	0.0749327
131.9	0.074836
132	0.0747424
132.1	0.0746458
132.2	0.0745447
132.3	0.0744426
132.4	0.0743364
132.5	0.0742232
132.6	0.0741119
132.7	0.0740016
132.8	0.0738978
132.9	0.0737956
133	0.0736969
133.1	0.0735997
133.2	0.0735048
133.3	0.073414
133.4	0.0733236
133.5	0.0732325
133.6	0.0731419
133.7	0.0730536
133.8	0.0729666
133.9	0.0728812
134	0.0728006
134.1	0.0727175
134.2	0.0726356
134.3	0.0725516
134.4	0.0724613
134.5	0.0723696
134.6	0.0722826
134.7	0.0721973
134.8	0.0721106
134.9	0.0720244
135	0.0719391
135.1	0.071852
135.2	0.0717622
135.3	0.0716666
135.4	0.0715662
135.5	0.0714643
135.6	0.0713651
135.7	0.0712653
135.8	0.0711625
135.9	0.0710547
136	0.0709441
136.1	0.0708296
136.2	0.0707161
136.3	0.0706026
136.4	0.0704854
136.5	0.0703652
136.6	0.0702436
136.7	0.0701261
136.8	0.0700111
136.9	0.0698897
137	0.0697649
137.1	0.0696407
137.2	0.069517
137.3	0.0693962
137.4	0.069276
137.5	0.0691525
137.6	0.0690274
137.7	0.0689
137.8	0.0687704
137.9	0.0686451
138	0.0685248
138.1	0.0684089
138.2	0.0682978
138.3	0.0681904
138.4	0.0680797
138.5	0.0679661
138.6	0.0678504
138.7	0.0677329
138.8	0.0676152
138.9	0.0674972
139	0.0673795
139.1	0.0672665
139.2	0.067155
139.3	0.067047
139.4	0.0669392
139.5	0.066832
139.6	0.0667191
139.7	0.0666077
139.8	0.0664968
139.9	0.0663903
140	0.0662873
140.1	0.0661816
140.2	0.0660744
140.3	0.0659666
140.4	0.0658587
140.5	0.0657535
140.6	0.0656487
140.7	0.0655427
140.8	0.0654346
140.9	0.0653257
141	0.0652169
141.1	0.0651124
141.2	0.0650087
141.3	0.0649063
141.4	0.0648038
141.5	0.064704
141.6	0.0646065
141.7	0.0645095
141.8	0.0644104
141.9	0.064311
142	0.0642109
142.1	0.0641101
142.2	0.0640089
142.3	0.0639087
142.4	0.0638097
142.5	0.0637079
