LagTime	Correlation

0	0.66991
0.1	0.66489
0.2	0.657402
0.3	0.649363
0.4	0.641262
0.5	0.633225
0.6	0.625278
0.7	0.617423
0.8	0.609664
0.9	0.601999
1	0.594434
1.1	0.586962
1.2	0.57958
1.3	0.572289
1.4	0.565086
1.5	0.557972
1.6	0.550947
1.7	0.544009
1.8	0.537156
1.9	0.530388
2	0.523708
2.1	0.517116
2.2	0.510605
2.3	0.504175
2.4	0.497824
2.5	0.491549
2.6	0.485352
2.7	0.479236
2.8	0.473204
2.9	0.467248
3	0.461368
3.1	0.455564
3.2	0.449837
3.3	0.444183
3.4	0.438601
3.5	0.433083
3.6	0.427633
3.7	0.422248
3.8	0.416935
3.9	0.411689
4	0.40652
4.1	0.401422
4.2	0.396391
4.3	0.391423
4.4	0.386515
4.5	0.381668
4.6	0.376885
4.7	0.372163
4.8	0.367504
4.9	0.3629
5	0.358349
5.1	0.353857
5.2	0.349416
5.3	0.345024
5.4	0.340684
5.5	0.336403
5.6	0.332176
5.7	0.328004
5.8	0.323883
5.9	0.319817
6	0.31581
6.1	0.311861
6.2	0.307965
6.3	0.304114
6.4	0.300309
6.5	0.296553
6.6	0.29285
6.7	0.289193
6.8	0.285578
6.9	0.282009
7	0.278485
7.1	0.27501
7.2	0.271581
7.3	0.268199
7.4	0.26486
7.5	0.261565
7.6	0.258308
7.7	0.25509
7.8	0.251911
7.9	0.248769
8	0.245663
8.1	0.242592
8.2	0.239561
8.3	0.236572
8.4	0.233622
8.5	0.230712
8.6	0.227844
8.7	0.225012
8.8	0.222221
8.9	0.219464
9	0.21674
9.1	0.214056
9.2	0.211409
9.3	0.208795
9.4	0.206211
9.5	0.203657
9.6	0.201132
9.7	0.198638
9.8	0.196171
9.9	0.193732
10	0.191327
10.1	0.18896
10.2	0.186628
10.3	0.184325
10.4	0.182058
10.5	0.179822
10.6	0.177615
10.7	0.175436
10.8	0.17329
10.9	0.171176
11	0.169092
11.1	0.167031
11.2	0.164992
11.3	0.16297
11.4	0.160971
11.5	0.158999
11.6	0.157046
11.7	0.155112
11.8	0.153201
11.9	0.151313
12	0.149447
12.1	0.147602
12.2	0.145778
12.3	0.143976
12.4	0.142193
12.5	0.14043
12.6	0.138688
12.7	0.136965
12.8	0.135261
12.9	0.133579
13	0.131922
13.1	0.13029
13.2	0.128677
13.3	0.127084
13.4	0.125511
13.5	0.123955
13.6	0.122419
13.7	0.1209
13.8	0.119396
13.9	0.117903
14	0.116424
14.1	0.114967
14.2	0.113528
14.3	0.112107
14.4	0.110704
14.5	0.109321
14.6	0.107956
14.7	0.106606
14.8	0.105269
14.9	0.103949
15	0.102643
15.1	0.101358
15.2	0.10009
15.3	0.0988412
15.4	0.0976021
15.5	0.0963743
15.6	0.0951572
15.7	0.0939542
15.8	0.0927666
15.9	0.0915894
16	0.0904262
16.1	0.0892746
16.2	0.0881428
16.3	0.0870317
16.4	0.0859417
16.5	0.0848688
16.6	0.0838122
16.7	0.0827671
16.8	0.0817348
16.9	0.0807118
17	0.0797057
17.1	0.078717
17.2	0.077746
17.3	0.0767871
17.4	0.0758392
17.5	0.0749017
17.6	0.0739744
17.7	0.0730586
17.8	0.0721578
17.9	0.0712677
18	0.0703881
18.1	0.0695201
18.2	0.0686633
18.3	0.0678182
18.4	0.0669812
18.5	0.0661535
18.6	0.0653314
18.7	0.0645101
18.8	0.0636916
18.9	0.0628847
19	0.0620861
19.1	0.0612909
19.2	0.0605042
19.3	0.0597256
19.4	0.0589569
19.5	0.0582005
19.6	0.0574568
19.7	0.0567303
19.8	0.0560175
19.9	0.0553155
20	0.0546257
20.1	0.0539483
20.2	0.0532796
20.3	0.0526214
20.4	0.0519746
20.5	0.0513385
20.6	0.0507178
20.7	0.0501061
20.8	0.0495
20.9	0.0488993
21	0.048299
21.1	0.0477029
21.2	0.0471135
21.3	0.0465319
21.4	0.0459545
21.5	0.0453828
21.6	0.0448135
21.7	0.0442476
21.8	0.0436841
21.9	0.0431337
22	0.0425938
22.1	0.0420642
22.2	0.0415428
22.3	0.041027
22.4	0.0405119
22.5	0.0399983
22.6	0.0394912
22.7	0.0389905
22.8	0.0384919
22.9	0.0379975
23	0.0374994
23.1	0.0370074
23.2	0.0365172
23.3	0.0360246
23.4	0.0355316
23.5	0.03504
23.6	0.0345478
23.7	0.0340643
23.8	0.0335851
23.9	0.033112
24	0.0326476
24.1	0.0321921
24.2	0.0317472
24.3	0.0313129
24.4	0.0308908
24.5	0.0304771
24.6	0.0300768
24.7	0.0296794
24.8	0.0292842
24.9	0.0288943
25	0.0285096
25.1	0.0281298
25.2	0.0277534
25.3	0.0273828
25.4	0.0270151
25.5	0.0266525
25.6	0.0262991
25.7	0.0259549
25.8	0.0256201
25.9	0.0252923
26	0.0249687
26.1	0.0246475
26.2	0.0243307
26.3	0.0240189
26.4	0.0237125
26.5	0.02342
26.6	0.0231354
26.7	0.0228558
26.8	0.0225804
26.9	0.0223055
27	0.0220357
27.1	0.0217649
27.2	0.0214952
27.3	0.0212265
27.4	0.0209627
27.5	0.0206997
27.6	0.0204346
27.7	0.0201689
27.8	0.0198972
27.9	0.0196276
28	0.0193634
28.1	0.0190975
28.2	0.018834
28.3	0.0185778
28.4	0.0183238
28.5	0.018076
28.6	0.0178344
28.7	0.0175997
28.8	0.0173704
28.9	0.0171516
29	0.0169406
29.1	0.016737
29.2	0.0165345
29.3	0.0163338
29.4	0.0161413
29.5	0.0159531
29.6	0.0157654
29.7	0.0155749
29.8	0.0153865
29.9	0.0152064
30	0.0150302
30.1	0.0148573
30.2	0.0146888
30.3	0.0145261
30.4	0.0143615
30.5	0.0141975
30.6	0.0140368
30.7	0.0138763
30.8	0.0137173
30.9	0.0135603
31	0.0133993
31.1	0.0132383
31.2	0.0130807
31.3	0.0129247
31.4	0.0127716
31.5	0.0126199
31.6	0.0124717
31.7	0.0123274
31.8	0.0121812
31.9	0.0120327
32	0.0118797
32.1	0.0117267
32.2	0.011581
32.3	0.0114456
32.4	0.0113137
32.5	0.0111886
32.6	0.0110721
32.7	0.0109616
32.8	0.0108577
32.9	0.0107557
33	0.0106543
33.1	0.0105533
33.2	0.0104503
33.3	0.0103471
33.4	0.0102433
33.5	0.0101418
33.6	0.0100458
33.7	0.00995022
33.8	0.00985826
33.9	0.00976917
34	0.00968663
34.1	0.00960646
34.2	0.00952736
34.3	0.00945125
34.4	0.00937286
34.5	0.00929189
34.6	0.0092101
34.7	0.00912538
34.8	0.00903469
34.9	0.00894044
35	0.00884702
35.1	0.00875047
35.2	0.00864954
35.3	0.0085454
35.4	0.00844022
35.5	0.00832984
35.6	0.0082121
35.7	0.00809014
35.8	0.00797045
35.9	0.00785474
36	0.00774515
36.1	0.00764173
36.2	0.00754504
36.3	0.00745343
36.4	0.00736707
36.5	0.00728729
36.6	0.00720903
36.7	0.00713078
36.8	0.00705178
36.9	0.00696902
37	0.00688974
37.1	0.00681469
37.2	0.00674581
37.3	0.00667874
37.4	0.00661431
37.5	0.00655003
37.6	0.00648951
37.7	0.00642742
37.8	0.00636647
37.9	0.00630922
38	0.00625282
38.1	0.00619903
38.2	0.00614633
38.3	0.00609458
38.4	0.00604484
38.5	0.00599478
38.6	0.00594481
38.7	0.0058931
38.8	0.00584274
38.9	0.00579383
39	0.0057412
39.1	0.00568888
39.2	0.00563573
39.3	0.00558121
39.4	0.0055265
39.5	0.00547939
39.6	0.0054385
39.7	0.00539562
39.8	0.00535322
39.9	0.00531555
40	0.00527691
40.1	0.0052347
40.2	0.00518742
40.3	0.00514142
40.4	0.00509637
40.5	0.00505022
40.6	0.00500034
40.7	0.00494624
40.8	0.00488942
40.9	0.00483244
41	0.00477512
41.1	0.00471983
41.2	0.0046678
41.3	0.004619
41.4	0.00457863
41.5	0.00453682
41.6	0.00449345
41.7	0.00444657
41.8	0.00439329
41.9	0.00433896
42	0.00428083
42.1	0.00422001
42.2	0.00416297
42.3	0.00411099
42.4	0.0040565
42.5	0.00400486
42.6	0.00395782
42.7	0.003911
42.8	0.00386036
42.9	0.00381071
43	0.00375858
43.1	0.00370784
43.2	0.00365855
43.3	0.00361082
43.4	0.00356199
43.5	0.00351315
43.6	0.00347004
43.7	0.00342973
43.8	0.00339353
43.9	0.00336118
44	0.0033321
44.1	0.00330522
44.2	0.00327817
44.3	0.00325171
44.4	0.00323442
44.5	0.00322096
44.6	0.0032097
44.7	0.00319517
44.8	0.00318206
44.9	0.00316764
45	0.00315202
45.1	0.00313641
45.2	0.00312188
45.3	0.00310843
45.4	0.00309459
45.5	0.0030758
45.6	0.00305941
45.7	0.00304777
45.8	0.0030403
45.9	0.0030343
46	0.00303228
46.1	0.00303218
46.2	0.00303238
46.3	0.00303309
46.4	0.00303115
46.5	0.00302605
46.6	0.00301515
46.7	0.00300383
46.8	0.00299023
46.9	0.0029801
47	0.00296946
47.1	0.00295951
47.2	0.00295147
47.3	0.00294662
47.4	0.00294096
47.5	0.00293361
47.6	0.0029244
47.7	0.0029127
47.8	0.00290155
47.9	0.00288769
48	0.00287141
48.1	0.00285282
48.2	0.00283504
48.3	0.00281665
48.4	0.00279701
48.5	0.00276866
48.6	0.00273824
48.7	0.00271169
48.8	0.00268673
48.9	0.0026636
49	0.00264015
49.1	0.002617
49.2	0.00259285
49.3	0.00256836
49.4	0.00254816
49.5	0.00253228
49.6	0.00252282
49.7	0.00252059
49.8	0.00252269
49.9	0.0025272
50	0.00253365
50.1	0.00254565
50.2	0.00256327
50.3	0.00258469
50.4	0.00260925
50.5	0.0026288
50.6	0.0026456
50.7	0.00266378
50.8	0.00268213
50.9	0.002698
51	0.00270806
51.1	0.00271503
51.2	0.00272253
51.3	0.00272963
51.4	0.0027385
51.5	0.00274999
51.6	0.00276159
51.7	0.00277393
51.8	0.00278012
51.9	0.00278368
52	0.00278548
52.1	0.00278716
52.2	0.00278864
52.3	0.00278889
52.4	0.00278904
52.5	0.00279384
52.6	0.0028039
52.7	0.00281729
52.8	0.00283082
52.9	0.00284596
53	0.00285894
53.1	0.00286526
53.2	0.00286635
53.3	0.00286741
53.4	0.00287129
53.5	0.0028677
53.6	0.00285281
53.7	0.00283478
53.8	0.00281564
53.9	0.00279148
54	0.00276779
54.1	0.00274441
54.2	0.00272116
54.3	0.00269915
54.4	0.00267552
54.5	0.00265327
54.6	0.00263184
54.7	0.00261099
54.8	0.00258944
54.9	0.0025683
55	0.0025506
55.1	0.00253536
55.2	0.00252167
55.3	0.00250355
55.4	0.00248135
55.5	0.00245575
55.6	0.00243171
55.7	0.00240787
55.8	0.00238446
55.9	0.00236117
56	0.00234222
56.1	0.00232327
56.2	0.00230463
56.3	0.00228879
56.4	0.0022737
56.5	0.00225802
56.6	0.0022407
56.7	0.0022211
56.8	0.0021978
56.9	0.00217519
57	0.00214852
57.1	0.00212316
57.2	0.00209689
57.3	0.00207356
57.4	0.0020527
57.5	0.00203249
57.6	0.00201177
57.7	0.00199008
57.8	0.00196713
57.9	0.00194776
58	0.00193373
58.1	0.00192216
58.2	0.00191298
58.3	0.00190271
58.4	0.00189078
58.5	0.00188023
58.6	0.0018699
58.7	0.00185919
58.8	0.0018454
58.9	0.00183131
59	0.00181422
59.1	0.00179525
59.2	0.0017737
59.3	0.00175243
59.4	0.00173579
59.5	0.00172331
59.6	0.00171206
59.7	0.00170125
59.8	0.00169258
59.9	0.00168708
60	0.00168224
60.1	0.00167711
60.2	0.00166672
60.3	0.00165619
60.4	0.00164337
60.5	0.00163316
60.6	0.00162443
60.7	0.0016151
60.8	0.00160262
60.9	0.00158819
61	0.00157781
61.1	0.00156901
61.2	0.00156078
61.3	0.0015546
61.4	0.00155044
61.5	0.00154683
61.6	0.00154318
61.7	0.00153938
61.8	0.00153485
61.9	0.00152964
62	0.00152351
62.1	0.00151707
62.2	0.00150385
62.3	0.00148979
62.4	0.00147961
62.5	0.00147686
62.6	0.00147857
62.7	0.00147648
62.8	0.00147093
62.9	0.00146447
63	0.00145861
63.1	0.00145424
63.2	0.00144894
63.3	0.00144519
63.4	0.00144372
63.5	0.00144517
63.6	0.00144748
63.7	0.00144936
63.8	0.00144626
63.9	0.0014371
64	0.00142869
64.1	0.00141271
64.2	0.00139582
64.3	0.00137856
64.4	0.00135537
64.5	0.00133614
64.6	0.00132334
64.7	0.00131495
64.8	0.00131291
64.9	0.00131082
65	0.00130628
65.1	0.00129584
65.2	0.00128321
65.3	0.00126745
65.4	0.00125108
65.5	0.00123424
65.6	0.00121886
65.7	0.00120268
65.8	0.00117997
65.9	0.00115472
66	0.00112993
66.1	0.00110041
66.2	0.00106775
66.3	0.00103519
66.4	0.00100093
66.5	0.000969544
66.6	0.000941626
66.7	0.000919095
66.8	0.000899544
66.9	0.000879237
67	0.000858071
67.1	0.000841154
67.2	0.000824021
67.3	0.000807085
67.4	0.000790265
67.5	0.00077727
67.6	0.000765642
67.7	0.000751399
67.8	0.000738799
67.9	0.000727134
68	0.000720572
68.1	0.000716003
68.2	0.000711233
68.3	0.000706674
68.4	0.000699591
68.5	0.0006921
68.6	0.000682427
68.7	0.000669258
68.8	0.000656491
68.9	0.000639536
69	0.000619874
69.1	0.000599904
69.2	0.000582428
69.3	0.000566402
69.4	0.000551205
69.5	0.000539942
69.6	0.000531241
69.7	0.000524733
69.8	0.000527033
69.9	0.000532032
70	0.00053844
70.1	0.000547199
70.2	0.000557336
70.3	0.000568153
70.4	0.000575092
70.5	0.000573885
70.6	0.000564573
70.7	0.00055107
70.8	0.000539558
70.9	0.000528781
71	0.000510513
71.1	0.000486719
71.2	0.000462862
71.3	0.000441078
71.4	0.000419567
71.5	0.000402154
71.6	0.000390858
71.7	0.000383012
71.8	0.000375944
71.9	0.000367584
72	0.000359803
72.1	0.000352832
72.2	0.000339832
72.3	0.000326351
72.4	0.000313453
72.5	0.000303376
72.6	0.000296902
72.7	0.000289981
72.8	0.000281395
72.9	0.000267654
73	0.00025357
73.1	0.000241224
73.2	0.000231616
73.3	0.000219298
73.4	0.000206417
73.5	0.000192234
73.6	0.000175415
73.7	0.000162041
73.8	0.000147823
73.9	0.000134108
74	0.000119045
74.1	0.000102445
74.2	8.54557e-05
74.3	6.83808e-05
74.4	5.7097e-05
74.5	5.18812e-05
74.6	5.12188e-05
74.7	5.28587e-05
74.8	5.15017e-05
74.9	4.87847e-05
75	4.60334e-05
75.1	4.34462e-05
75.2	4.26275e-05
75.3	3.98713e-05
75.4	3.23531e-05
75.5	2.1244e-05
75.6	5.52789e-06
75.7	-8.48119e-06
75.8	-2.29466e-05
75.9	-3.17954e-05
76	-3.32568e-05
76.1	-3.26344e-05
76.2	-3.95079e-05
76.3	-4.80797e-05
76.4	-5.81013e-05
76.5	-7.05656e-05
76.6	-8.05284e-05
76.7	-8.98015e-05
76.8	-9.3547e-05
76.9	-9.85588e-05
77	-0.000105529
77.1	-0.000115579
77.2	-0.000127313
77.3	-0.000139572
77.4	-0.000153111
77.5	-0.000173048
77.6	-0.000194106
77.7	-0.000216991
77.8	-0.00024307
77.9	-0.000269025
78	-0.000287342
78.1	-0.00030311
78.2	-0.000317783
78.3	-0.000330941
78.4	-0.000336739
78.5	-0.000341847
78.6	-0.00034238
78.7	-0.000338899
78.8	-0.000335773
78.9	-0.000326833
79	-0.000316578
79.1	-0.00030456
79.2	-0.000289344
79.3	-0.000268111
79.4	-0.000244629
79.5	-0.000221945
79.6	-0.000198345
79.7	-0.000175729
79.8	-0.00015724
79.9	-0.000137618
80	-0.000115674
80.1	-9.20696e-05
80.2	-6.70707e-05
80.3	-3.72386e-05
80.4	-5.35917e-06
80.5	2.69607e-05
80.6	6.05857e-05
80.7	9.06312e-05
80.8	0.000118185
80.9	0.000143439
81	0.000171962
81.1	0.000205249
81.2	0.000239553
81.3	0.000272126
81.4	0.000300822
81.5	0.000326836
81.6	0.000350859
81.7	0.000372757
81.8	0.000391649
81.9	0.000407951
82	0.000421319
82.1	0.000433186
82.2	0.000439023
82.3	0.000440125
82.4	0.000441098
82.5	0.000441034
82.6	0.000443257
82.7	0.000449473
82.8	0.000458003
82.9	0.000461637
83	0.000464806
83.1	0.000468391
83.2	0.000480002
83.3	0.000493044
83.4	0.000503075
83.5	0.000511347
83.6	0.00052357
83.7	0.000536861
83.8	0.00054709
83.9	0.000557882
84	0.00056686
84.1	0.000573766
84.2	0.000579572
84.3	0.000586182
84.4	0.000592178
84.5	0.0006038
84.6	0.000623285
84.7	0.000643864
84.8	0.000660842
84.9	0.000674303
85	0.00068339
85.1	0.000691082
85.2	0.000694462
85.3	0.000698745
85.4	0.000702597
85.5	0.0007032
85.6	0.000703312
85.7	0.000699707
85.8	0.000691639
85.9	0.000682283
86	0.00067268
86.1	0.000659765
86.2	0.000644265
86.3	0.000630319
86.4	0.000616834
86.5	0.000599459
86.6	0.000576632
86.7	0.000553473
86.8	0.000533547
86.9	0.000519236
87	0.00050988
87.1	0.000501937
87.2	0.00049289
87.3	0.000484071
87.4	0.000477103
87.5	0.000468714
87.6	0.000458945
87.7	0.000448054
87.8	0.000435925
87.9	0.000424893
88	0.00041226
88.1	0.000399448
88.2	0.000387205
88.3	0.000378014
88.4	0.000374943
88.5	0.000373552
88.6	0.000373902
88.7	0.000374274
88.8	0.000375251
88.9	0.000375345
89	0.000375037
89.1	0.000376088
89.2	0.000376796
89.3	0.000381032
89.4	0.000388599
89.5	0.000398912
89.6	0.000406711
89.7	0.000412771
89.8	0.000419441
89.9	0.000424923
90	0.000433383
90.1	0.000445357
90.2	0.000456918
90.3	0.000468465
90.4	0.000481602
90.5	0.000493323
90.6	0.000504548
90.7	0.000516241
90.8	0.000526603
90.9	0.000538266
91	0.000554068
91.1	0.000571671
91.2	0.000587395
91.3	0.000598177
91.4	0.000607646
91.5	0.000617248
91.6	0.000632316
91.7	0.000651593
91.8	0.000672499
91.9	0.000695603
92	0.000722598
92.1	0.000753398
92.2	0.000785335
92.3	0.000822565
92.4	0.000861213
92.5	0.000894818
92.6	0.000927003
92.7	0.00096329
92.8	0.000997979
92.9	0.00102829
93	0.00105316
93.1	0.00107335
93.2	0.00108655
93.3	0.00109402
93.4	0.00109883
93.5	0.00110937
93.6	0.00112499
93.7	0.00113885
93.8	0.00115406
93.9	0.00116302
94	0.00117006
94.1	0.00117246
94.2	0.00117589
94.3	0.00117478
94.4	0.00117084
94.5	0.00116764
94.6	0.00116957
94.7	0.00117099
94.8	0.001169
94.9	0.00116198
95	0.00114932
95.1	0.00112958
95.2	0.00110412
95.3	0.00107424
95.4	0.00104163
95.5	0.00100521
95.6	0.000966254
95.7	0.000926469
95.8	0.000883329
95.9	0.000833496
96	0.000782868
96.1	0.000737005
96.2	0.000690395
96.3	0.000644811
96.4	0.00060417
96.5	0.000565562
96.6	0.000530047
96.7	0.000495471
96.8	0.000460473
96.9	0.000426595
97	0.000390245
97.1	0.000354422
97.2	0.000318434
97.3	0.000282434
97.4	0.000243903
97.5	0.000202684
97.6	0.000164105
97.7	0.000130512
97.8	9.76858e-05
97.9	6.44915e-05
98	3.01431e-05
98.1	-1.00431e-05
98.2	-5.69283e-05
98.3	-0.000104358
98.4	-0.000149127
98.5	-0.000186636
98.6	-0.000218324
98.7	-0.000244967
98.8	-0.000271515
98.9	-0.000297183
99	-0.000326742
99.1	-0.00036043
99.2	-0.000399468
99.3	-0.000437038
99.4	-0.000468848
99.5	-0.000497001
99.6	-0.000524167
99.7	-0.000552528
99.8	-0.000587319
99.9	-0.000623566
100	-0.000657701
100.1	-0.0006933
100.2	-0.000725758
100.3	-0.000759762
100.4	-0.000796959
100.5	-0.000834669
100.6	-0.00087116
100.7	-0.00090536
100.8	-0.000940142
100.9	-0.000974852
101	-0.00101094
101.1	-0.00104668
101.2	-0.00108058
101.3	-0.00111483
101.4	-0.00114998
101.5	-0.0011884
101.6	-0.00122397
101.7	-0.00125513
101.8	-0.00128468
101.9	-0.00131305
102	-0.00133995
102.1	-0.00137065
102.2	-0.00140191
102.3	-0.00143177
102.4	-0.00146221
102.5	-0.00149402
102.6	-0.00152071
102.7	-0.00154761
102.8	-0.00157846
102.9	-0.00160751
103	-0.0016359
103.1	-0.00166712
103.2	-0.00170007
103.3	-0.00173301
103.4	-0.00176569
103.5	-0.00179422
103.6	-0.00182155
103.7	-0.00184624
103.8	-0.00186785
103.9	-0.0018878
104	-0.00191179
104.1	-0.00193768
104.2	-0.00195674
104.3	-0.00196839
104.4	-0.00197445
104.5	-0.00197395
104.6	-0.00197267
104.7	-0.00197444
104.8	-0.00198005
104.9	-0.00198917
105	-0.00200094
105.1	-0.00201012
105.2	-0.00201864
105.3	-0.00202348
105.4	-0.00201818
105.5	-0.002005
105.6	-0.00198874
105.7	-0.00197272
105.8	-0.00195575
105.9	-0.00194299
106	-0.00192866
106.1	-0.00191247
106.2	-0.00189437
106.3	-0.00187286
106.4	-0.00184866
106.5	-0.00182213
106.6	-0.00178984
106.7	-0.00175458
106.8	-0.00171524
106.9	-0.00167779
107	-0.00164702
107.1	-0.00162232
107.2	-0.00159962
107.3	-0.0015763
107.4	-0.0015502
107.5	-0.00151959
107.6	-0.00148416
107.7	-0.00144594
107.8	-0.0014062
107.9	-0.00136174
108	-0.00131682
108.1	-0.00127253
108.2	-0.00123139
108.3	-0.00119484
108.4	-0.00116113
108.5	-0.00113436
108.6	-0.00111553
108.7	-0.00109987
108.8	-0.00108625
108.9	-0.00107673
109	-0.00106731
109.1	-0.00106012
109.2	-0.00105596
109.3	-0.00105071
109.4	-0.00104591
109.5	-0.0010403
109.6	-0.00103383
109.7	-0.00102706
109.8	-0.00101665
109.9	-0.00100086
110	-0.000988012
110.1	-0.000976848
110.2	-0.000964525
110.3	-0.000947924
110.4	-0.000931617
110.5	-0.000915357
110.6	-0.000901207
110.7	-0.000890265
110.8	-0.000884985
110.9	-0.000882923
111	-0.000880172
111.1	-0.000875801
111.2	-0.000867719
111.3	-0.000856131
111.4	-0.000840923
111.5	-0.000821346
111.6	-0.000794983
111.7	-0.000764338
111.8	-0.000735597
111.9	-0.00071328
112	-0.000695936
112.1	-0.000681243
112.2	-0.0006637
112.3	-0.000645176
112.4	-0.000627272
112.5	-0.00060989
112.6	-0.000600591
112.7	-0.00059354
112.8	-0.000584778
112.9	-0.000571829
113	-0.000557365
113.1	-0.00054636
113.2	-0.000536153
113.3	-0.00052914
113.4	-0.000522444
113.5	-0.000516925
113.6	-0.000513239
113.7	-0.000513412
113.8	-0.000515095
113.9	-0.000515784
114	-0.000516133
114.1	-0.000513472
114.2	-0.000503593
114.3	-0.000493756
114.4	-0.000484385
114.5	-0.000472535
114.6	-0.00045904
114.7	-0.000444296
114.8	-0.000428772
114.9	-0.000419311
115	-0.00041454
115.1	-0.000412824
115.2	-0.000410656
115.3	-0.000413535
115.4	-0.000418524
115.5	-0.000425859
115.6	-0.000435292
115.7	-0.000443754
115.8	-0.000448106
115.9	-0.000450873
116	-0.000453097
116.1	-0.000455968
116.2	-0.000455882
116.3	-0.00045615
116.4	-0.000459981
116.5	-0.000461658
116.6	-0.000460174
116.7	-0.000459412
116.8	-0.000457813
116.9	-0.000452975
117	-0.000446442
117.1	-0.000437753
117.2	-0.000428329
117.3	-0.0004174
117.4	-0.000399227
117.5	-0.000377916
117.6	-0.000360052
117.7	-0.000346123
117.8	-0.000333179
117.9	-0.000322828
118	-0.000312859
118.1	-0.000300786
118.2	-0.000287027
118.3	-0.000274548
118.4	-0.000263023
118.5	-0.00025107
118.6	-0.000234619
118.7	-0.000216612
118.8	-0.00019777
118.9	-0.000178483
119	-0.000162152
119.1	-0.000151665
119.2	-0.000147911
119.3	-0.000147656
119.4	-0.000149625
119.5	-0.000150284
119.6	-0.000150031
119.7	-0.000155922
119.8	-0.000169921
119.9	-0.00018982
120	-0.000213069
120.1	-0.000235518
120.2	-0.000258286
120.3	-0.000279801
120.4	-0.000302686
120.5	-0.000332239
120.6	-0.000366203
120.7	-0.000394998
120.8	-0.000417478
120.9	-0.000436046
121	-0.00045694
121.1	-0.000482703
121.2	-0.000506638
121.3	-0.000522716
121.4	-0.000535874
121.5	-0.000546831
121.6	-0.000554231
121.7	-0.00056117
121.8	-0.000574017
121.9	-0.000587508
122	-0.000603475
122.1	-0.000621169
122.2	-0.000634032
122.3	-0.000641513
122.4	-0.000646569
122.5	-0.000646336
122.6	-0.000642553
122.7	-0.00063724
122.8	-0.00063364
122.9	-0.0006278
123	-0.000617995
123.1	-0.000606111
123.2	-0.000598879
123.3	-0.000599029
123.4	-0.000603244
123.5	-0.000606341
123.6	-0.000607608
123.7	-0.000606849
123.8	-0.00060497
123.9	-0.000607738
124	-0.000610715
124.1	-0.000611471
124.2	-0.000610873
124.3	-0.000614205
124.4	-0.000620965
124.5	-0.000632246
