LagTime	Correlation

0	0.668254
0.1	0.663238
0.2	0.655762
0.3	0.647744
0.4	0.639665
0.5	0.631645
0.6	0.623712
0.7	0.615877
0.8	0.608137
0.9	0.600494
1	0.592942
1.1	0.58548
1.2	0.578116
1.3	0.570847
1.4	0.563668
1.5	0.556574
1.6	0.549567
1.7	0.542647
1.8	0.535814
1.9	0.529066
2	0.522402
2.1	0.515819
2.2	0.509317
2.3	0.502905
2.4	0.496579
2.5	0.490338
2.6	0.484179
2.7	0.478097
2.8	0.472089
2.9	0.466157
3	0.460303
3.1	0.454522
3.2	0.448814
3.3	0.443174
3.4	0.437605
3.5	0.432107
3.6	0.426676
3.7	0.421313
3.8	0.416016
3.9	0.410788
4	0.405632
4.1	0.400542
4.2	0.395523
4.3	0.390571
4.4	0.38568
4.5	0.38085
4.6	0.376081
4.7	0.371376
4.8	0.366732
4.9	0.362146
5	0.357621
5.1	0.353155
5.2	0.34874
5.3	0.344374
5.4	0.340062
5.5	0.335804
5.6	0.331601
5.7	0.327454
5.8	0.323362
5.9	0.319322
6	0.315335
6.1	0.311399
6.2	0.30751
6.3	0.30367
6.4	0.299884
6.5	0.296151
6.6	0.292466
6.7	0.288833
6.8	0.285242
6.9	0.281697
7	0.278199
7.1	0.274749
7.2	0.27135
7.3	0.267994
7.4	0.264683
7.5	0.261414
7.6	0.258187
7.7	0.255004
7.8	0.251866
7.9	0.24877
8	0.245713
8.1	0.242691
8.2	0.239704
8.3	0.236753
8.4	0.233843
8.5	0.230966
8.6	0.228123
8.7	0.225317
8.8	0.222545
8.9	0.219807
9	0.217104
9.1	0.214434
9.2	0.211801
9.3	0.209206
9.4	0.206649
9.5	0.20413
9.6	0.201646
9.7	0.199191
9.8	0.196763
9.9	0.194362
10	0.191986
10.1	0.189628
10.2	0.187291
10.3	0.184978
10.4	0.182697
10.5	0.180448
10.6	0.178234
10.7	0.176049
10.8	0.173891
10.9	0.171764
11	0.169662
11.1	0.167586
11.2	0.165531
11.3	0.163499
11.4	0.161495
11.5	0.159527
11.6	0.15759
11.7	0.155678
11.8	0.15379
11.9	0.151931
12	0.150095
12.1	0.148284
12.2	0.146494
12.3	0.144723
12.4	0.142971
12.5	0.141242
12.6	0.139534
12.7	0.137849
12.8	0.136181
12.9	0.13453
13	0.132896
13.1	0.131282
13.2	0.129687
13.3	0.128112
13.4	0.126558
13.5	0.125024
13.6	0.123502
13.7	0.121997
13.8	0.12051
13.9	0.11904
14	0.117587
14.1	0.116152
14.2	0.114737
14.3	0.11334
14.4	0.111965
14.5	0.110611
14.6	0.109275
14.7	0.107952
14.8	0.106646
14.9	0.105358
15	0.10409
15.1	0.102848
15.2	0.101627
15.3	0.100426
15.4	0.0992423
15.5	0.0980765
15.6	0.0969247
15.7	0.0957889
15.8	0.0946666
15.9	0.0935572
16	0.0924613
16.1	0.0913788
16.2	0.0903086
16.3	0.0892512
16.4	0.0882084
16.5	0.0871802
16.6	0.0861662
16.7	0.0851681
16.8	0.0841867
16.9	0.0832161
17	0.0822578
17.1	0.0813132
17.2	0.0803802
17.3	0.0794559
17.4	0.0785436
17.5	0.0776444
17.6	0.0767609
17.7	0.0758863
17.8	0.075021
17.9	0.0741616
18	0.073314
18.1	0.0724792
18.2	0.0716551
18.3	0.0708472
18.4	0.070052
18.5	0.0692623
18.6	0.0684745
18.7	0.0676902
18.8	0.0669162
18.9	0.0661531
19	0.0654054
19.1	0.0646738
19.2	0.063954
19.3	0.0632451
19.4	0.0625438
19.5	0.0618546
19.6	0.0611772
19.7	0.0605095
19.8	0.0598516
19.9	0.0592021
20	0.0585606
20.1	0.0579261
20.2	0.0573014
20.3	0.0566854
20.4	0.0560757
20.5	0.0554746
20.6	0.0548814
20.7	0.0542957
20.8	0.0537098
20.9	0.0531243
21	0.0525444
21.1	0.0519808
21.2	0.0514321
21.3	0.0508895
21.4	0.0503549
21.5	0.0498317
21.6	0.0493122
21.7	0.0487944
21.8	0.0482804
21.9	0.0477779
22	0.0472792
22.1	0.0467822
22.2	0.0462854
22.3	0.045792
22.4	0.0453035
22.5	0.0448223
22.6	0.0443481
22.7	0.0438816
22.8	0.0434277
22.9	0.0429817
23	0.0425362
23.1	0.042091
23.2	0.0416471
23.3	0.0412087
23.4	0.0407757
23.5	0.0403496
23.6	0.0399268
23.7	0.0395081
23.8	0.0390939
23.9	0.0386844
24	0.038281
24.1	0.0378898
24.2	0.0375056
24.3	0.0371221
24.4	0.0367393
24.5	0.036354
24.6	0.0359673
24.7	0.0355778
24.8	0.0351906
24.9	0.0348112
25	0.0344349
25.1	0.0340579
25.2	0.0336765
25.3	0.0332931
25.4	0.0329146
25.5	0.032545
25.6	0.0321825
25.7	0.0318275
25.8	0.0314765
25.9	0.0311327
26	0.0307964
26.1	0.0304654
26.2	0.0301337
26.3	0.0298024
26.4	0.029472
26.5	0.0291418
26.6	0.0288131
26.7	0.0284956
26.8	0.0281852
26.9	0.027879
27	0.0275774
27.1	0.0272797
27.2	0.0269855
27.3	0.0266932
27.4	0.0264017
27.5	0.0261173
27.6	0.0258361
27.7	0.025558
27.8	0.0252865
27.9	0.0250167
28	0.0247491
28.1	0.0244852
28.2	0.0242251
28.3	0.0239682
28.4	0.0237134
28.5	0.0234597
28.6	0.0232071
28.7	0.0229583
28.8	0.0227136
28.9	0.0224701
29	0.0222301
29.1	0.021995
29.2	0.021761
29.3	0.0215313
29.4	0.0213036
29.5	0.0210815
29.6	0.0208624
29.7	0.02065
29.8	0.0204438
29.9	0.0202434
30	0.0200434
30.1	0.019846
30.2	0.0196531
30.3	0.0194629
30.4	0.0192773
30.5	0.0190924
30.6	0.0189094
30.7	0.0187301
30.8	0.0185484
30.9	0.0183694
31	0.0181873
31.1	0.0180032
31.2	0.0178241
31.3	0.0176494
31.4	0.0174807
31.5	0.0173154
31.6	0.0171502
31.7	0.016982
31.8	0.0168148
31.9	0.0166506
32	0.0164886
32.1	0.0163258
32.2	0.0161577
32.3	0.0159913
32.4	0.0158265
32.5	0.0156654
32.6	0.0155033
32.7	0.0153384
32.8	0.0151706
32.9	0.0150035
33	0.0148424
33.1	0.0146884
33.2	0.0145397
33.3	0.0143908
33.4	0.0142343
33.5	0.0140717
33.6	0.0139109
33.7	0.013753
33.8	0.0135952
33.9	0.0134371
34	0.0132748
34.1	0.0131142
34.2	0.0129579
34.3	0.0128035
34.4	0.0126575
34.5	0.0125126
34.6	0.0123667
34.7	0.0122192
34.8	0.0120716
34.9	0.0119249
35	0.0117814
35.1	0.0116363
35.2	0.0114922
35.3	0.0113469
35.4	0.0112037
35.5	0.0110647
35.6	0.010927
35.7	0.01079
35.8	0.0106582
35.9	0.0105275
36	0.0103992
36.1	0.0102736
36.2	0.0101487
36.3	0.010024
36.4	0.00989815
36.5	0.00977398
36.6	0.00965035
36.7	0.00952752
36.8	0.00940829
36.9	0.00929274
37	0.00918183
37.1	0.00907723
37.2	0.00897957
37.3	0.00888503
37.4	0.00878655
37.5	0.00868843
37.6	0.00858963
37.7	0.00848878
37.8	0.00838904
37.9	0.00829485
38	0.00820435
38.1	0.00811505
38.2	0.0080322
38.3	0.00795402
38.4	0.00787625
38.5	0.00780166
38.6	0.00772761
38.7	0.00765645
38.8	0.00758484
38.9	0.00751436
39	0.00744716
39.1	0.00738434
39.2	0.00731734
39.3	0.00724814
39.4	0.00717909
39.5	0.00710358
39.6	0.0070224
39.7	0.00694145
39.8	0.00686146
39.9	0.00678386
40	0.00670597
40.1	0.00663233
40.2	0.00656368
40.3	0.00649769
40.4	0.0064338
40.5	0.00637101
40.6	0.00630853
40.7	0.00624434
40.8	0.00617982
40.9	0.00611943
41	0.00606458
41.1	0.006011
41.2	0.00595462
41.3	0.00589518
41.4	0.00583237
41.5	0.0057681
41.6	0.00570145
41.7	0.00563051
41.8	0.00556086
41.9	0.00548984
42	0.0054168
42.1	0.0053421
42.2	0.00526704
42.3	0.00519061
42.4	0.00511396
42.5	0.00503831
42.6	0.00496444
42.7	0.00489458
42.8	0.00482572
42.9	0.00475796
43	0.0046934
43.1	0.00462746
43.2	0.00455731
43.3	0.00448714
43.4	0.00441735
43.5	0.00434857
43.6	0.00428147
43.7	0.00421555
43.8	0.00414879
43.9	0.00408243
44	0.0040179
44.1	0.00395616
44.2	0.00389591
44.3	0.00383465
44.4	0.00377419
44.5	0.00371436
44.6	0.00365549
44.7	0.00359907
44.8	0.00354619
44.9	0.00349425
45	0.00344383
45.1	0.00339749
45.2	0.00335613
45.3	0.00332206
45.4	0.0032952
45.5	0.00327108
45.6	0.00324539
45.7	0.00321958
45.8	0.00319309
45.9	0.00316348
46	0.00313413
46.1	0.00310643
46.2	0.00308122
46.3	0.00305531
46.4	0.00302496
46.5	0.00299219
46.6	0.00296019
46.7	0.00292846
46.8	0.00289651
46.9	0.00286154
47	0.00282542
47.1	0.00278636
47.2	0.00274461
47.3	0.00269831
47.4	0.00265137
47.5	0.00260385
47.6	0.00255504
47.7	0.0025017
47.8	0.00245318
47.9	0.00240633
48	0.00235877
48.1	0.00230766
48.2	0.00225692
48.3	0.00220353
48.4	0.00214985
48.5	0.0020969
48.6	0.00204674
48.7	0.00199221
48.8	0.00193899
48.9	0.00188484
49	0.00182763
49.1	0.00176791
49.2	0.00170946
49.3	0.00165935
49.4	0.00161442
49.5	0.00156831
49.6	0.00151884
49.7	0.00146955
49.8	0.00142826
49.9	0.00139119
50	0.00136323
50.1	0.00133787
50.2	0.00131545
50.3	0.00129076
50.4	0.00126722
50.5	0.00125278
50.6	0.00124616
50.7	0.00124208
50.8	0.00123881
50.9	0.00123398
51	0.00122426
51.1	0.00121826
51.2	0.00121106
51.3	0.00120238
51.4	0.00118473
51.5	0.00116008
51.6	0.00113779
51.7	0.00111642
51.8	0.00109131
51.9	0.00106785
52	0.00103668
52.1	0.00100177
52.2	0.000966344
52.3	0.000934381
52.4	0.000908154
52.5	0.00088816
52.6	0.000874083
52.7	0.000868098
52.8	0.000866374
52.9	0.000865397
53	0.000862667
53.1	0.000857314
53.2	0.000855139
53.3	0.00085569
53.4	0.000857369
53.5	0.000859645
53.6	0.000861556
53.7	0.000858985
53.8	0.000857214
53.9	0.000855191
54	0.000855803
54.1	0.00085824
54.2	0.000856276
54.3	0.000852927
54.4	0.000850486
54.5	0.000852855
54.6	0.000855261
54.7	0.000858899
54.8	0.000864116
54.9	0.000876569
55	0.000893145
55.1	0.00091248
55.2	0.000932998
55.3	0.00095117
55.4	0.00096814
55.5	0.000986583
55.6	0.00100409
55.7	0.00101992
55.8	0.00103727
55.9	0.0010562
56	0.00107768
56.1	0.0011004
56.2	0.00112169
56.3	0.00114104
56.4	0.00115751
56.5	0.0011706
56.6	0.00118091
56.7	0.00119309
56.8	0.00120426
56.9	0.00121254
57	0.00122101
57.1	0.00123048
57.2	0.00123564
57.3	0.00123669
57.4	0.00123463
57.5	0.00122934
57.6	0.00122419
57.7	0.00121982
57.8	0.00121448
57.9	0.00121181
58	0.00120908
58.1	0.00120948
58.2	0.00121216
58.3	0.00121185
58.4	0.0012092
58.5	0.00120318
58.6	0.00119187
58.7	0.00117686
58.8	0.00116431
58.9	0.0011514
59	0.0011411
59.1	0.00113605
59.2	0.00113329
59.3	0.00112878
59.4	0.00112246
59.5	0.00111489
59.6	0.00110807
59.7	0.00110167
59.8	0.00109275
59.9	0.00108102
60	0.00106973
60.1	0.00106138
60.2	0.00105211
60.3	0.0010401
60.4	0.00103323
60.5	0.00102459
60.6	0.00102049
60.7	0.00102064
60.8	0.00102582
60.9	0.00103015
61	0.00103469
61.1	0.00104152
61.2	0.0010496
61.3	0.00105843
61.4	0.00106929
61.5	0.00108315
61.6	0.00109926
61.7	0.00111951
61.8	0.00113911
61.9	0.00116073
62	0.00118021
62.1	0.00119256
62.2	0.00119966
62.3	0.00120241
62.4	0.00120245
62.5	0.00119918
62.6	0.00119566
62.7	0.00119251
62.8	0.00118464
62.9	0.00117322
63	0.00116307
63.1	0.00115794
63.2	0.00115711
63.3	0.001156
63.4	0.00115432
63.5	0.00115512
63.6	0.00115812
63.7	0.00116506
63.8	0.00117749
63.9	0.00119357
64	0.0012093
64.1	0.00122751
64.2	0.00124918
64.3	0.00127064
64.4	0.00129268
64.5	0.00131837
64.6	0.00134798
64.7	0.0013796
64.8	0.00140903
64.9	0.00143724
65	0.00146595
65.1	0.00149323
65.2	0.00152031
65.3	0.00154804
65.4	0.00157607
65.5	0.00160513
65.6	0.00163323
65.7	0.00165848
65.8	0.00168089
65.9	0.0017045
66	0.00172094
66.1	0.0017328
66.2	0.00174782
66.3	0.00176843
66.4	0.00179112
66.5	0.00181758
66.6	0.00184376
66.7	0.00187179
66.8	0.00190403
66.9	0.00193622
67	0.00196809
67.1	0.00199786
67.2	0.00202672
67.3	0.00205316
67.4	0.00208108
67.5	0.00210797
67.6	0.00213307
67.7	0.00215735
67.8	0.00218138
67.9	0.00220525
68	0.00223057
68.1	0.00225346
68.2	0.0022745
68.3	0.00229525
68.4	0.00231321
68.5	0.00232783
68.6	0.00234271
68.7	0.00235915
68.8	0.00237475
68.9	0.00238924
69	0.00240874
69.1	0.00242854
69.2	0.00244798
69.3	0.00247112
69.4	0.00249884
69.5	0.00252609
69.6	0.00255264
69.7	0.00258116
69.8	0.00261781
69.9	0.00265427
70	0.00269007
70.1	0.0027229
70.2	0.00275365
70.3	0.00278374
70.4	0.00281369
70.5	0.00283748
70.6	0.00285476
70.7	0.00286936
70.8	0.00287747
70.9	0.00287897
71	0.00288027
71.1	0.00288835
71.2	0.00290649
71.3	0.00293007
71.4	0.00295196
71.5	0.00297326
71.6	0.00298806
71.7	0.00300026
71.8	0.00300537
71.9	0.00301039
72	0.00300965
72.1	0.00300698
72.2	0.00300383
72.3	0.00300027
72.4	0.00300005
72.5	0.0029986
72.6	0.00299401
72.7	0.00299215
72.8	0.0029897
72.9	0.00299234
73	0.00300021
73.1	0.00301142
73.2	0.00302676
73.3	0.00304039
73.4	0.00305398
73.5	0.00307181
73.6	0.00309245
73.7	0.00311567
73.8	0.00313719
73.9	0.00315661
74	0.00317864
74.1	0.00319504
74.2	0.00320653
74.3	0.00321564
74.4	0.00321956
74.5	0.00322368
74.6	0.00322907
74.7	0.00323861
74.8	0.00324815
74.9	0.0032529
75	0.00325605
75.1	0.00326146
75.2	0.00326486
75.3	0.00326665
75.4	0.00327488
75.5	0.00328105
75.6	0.00328645
75.7	0.0032926
75.8	0.00329957
75.9	0.0033099
76	0.00331974
76.1	0.00333174
76.2	0.00333874
76.3	0.00334597
76.4	0.00335622
76.5	0.00336986
76.6	0.00337962
76.7	0.00338662
76.8	0.00338568
76.9	0.00337885
77	0.00337655
77.1	0.00337721
77.2	0.00338032
77.3	0.00338504
77.4	0.00338626
77.5	0.00338688
77.6	0.0033914
77.7	0.00339172
77.8	0.00339334
77.9	0.00339591
78	0.00340165
78.1	0.00340359
78.2	0.00340147
78.3	0.00339535
78.4	0.00338549
78.5	0.00337187
78.6	0.00335844
78.7	0.00334521
78.8	0.00333493
78.9	0.00332099
79	0.00330267
79.1	0.00328473
79.2	0.0032673
79.3	0.00325468
79.4	0.00325262
79.5	0.00325628
79.6	0.00325941
79.7	0.00326689
79.8	0.00327744
79.9	0.00328784
80	0.00330064
80.1	0.00331408
80.2	0.00332765
80.3	0.00333792
80.4	0.00334352
80.5	0.00334637
80.6	0.00334662
80.7	0.00334946
80.8	0.00335518
80.9	0.00335957
81	0.00336447
81.1	0.00336713
81.2	0.00336986
81.3	0.00337862
81.4	0.00339158
81.5	0.00340363
81.6	0.00341582
81.7	0.00342349
81.8	0.00342759
81.9	0.00343487
82	0.00344593
82.1	0.00345357
82.2	0.00345801
82.3	0.00346006
82.4	0.00345838
82.5	0.00345325
82.6	0.00345242
82.7	0.00345309
82.8	0.00345498
82.9	0.00346119
83	0.00347043
83.1	0.00348471
83.2	0.00349909
83.3	0.00351175
83.4	0.00352628
83.5	0.00354376
83.6	0.00356393
83.7	0.00358429
83.8	0.00359953
83.9	0.00361367
84	0.00362467
84.1	0.00363455
84.2	0.00364779
84.3	0.00366448
84.4	0.0036832
84.5	0.00370304
84.6	0.00372158
84.7	0.00373942
84.8	0.00375373
84.9	0.00376972
85	0.00378437
85.1	0.00379772
85.2	0.00381178
85.3	0.00382583
85.4	0.00384208
85.5	0.00386098
85.6	0.00388232
85.7	0.00390025
85.8	0.00391616
85.9	0.0039277
86	0.00393991
86.1	0.00395756
86.2	0.00397985
86.3	0.0040069
86.4	0.00403491
86.5	0.00406487
86.6	0.00409368
86.7	0.00411905
86.8	0.00414168
86.9	0.00416215
87	0.00417853
87.1	0.00419103
87.2	0.00420112
87.3	0.00421115
87.4	0.00421878
87.5	0.00422592
87.6	0.00423155
87.7	0.0042381
87.8	0.00424876
87.9	0.00426024
88	0.00427701
88.1	0.00429877
88.2	0.00432148
88.3	0.00434589
88.4	0.00437255
88.5	0.00439695
88.6	0.00441667
88.7	0.00443702
88.8	0.0044639
88.9	0.00449366
89	0.0045212
89.1	0.00454513
89.2	0.00456631
89.3	0.0045858
89.4	0.00460362
89.5	0.00462663
89.6	0.00465292
89.7	0.00468063
89.8	0.00471007
89.9	0.00474062
90	0.00476997
90.1	0.00479824
90.2	0.00482748
90.3	0.00485008
90.4	0.00487004
90.5	0.00489041
90.6	0.00491532
90.7	0.00494123
90.8	0.00496716
90.9	0.00499013
91	0.00500935
91.1	0.00502268
91.2	0.00503128
91.3	0.00503842
91.4	0.0050431
91.5	0.00504278
91.6	0.00504221
91.7	0.00503595
91.8	0.00502601
91.9	0.00501795
92	0.00501148
92.1	0.00500719
92.2	0.0050073
92.3	0.00501124
92.4	0.00501487
92.5	0.00501452
92.6	0.00501389
92.7	0.00500898
92.8	0.00500407
92.9	0.00499741
93	0.00499311
93.1	0.00498778
93.2	0.00497479
93.3	0.0049555
93.4	0.00493314
93.5	0.00491303
93.6	0.0048897
93.7	0.00486209
93.8	0.00483667
93.9	0.00481488
94	0.00479709
94.1	0.00478299
94.2	0.00477055
94.3	0.00475976
94.4	0.00474704
94.5	0.00473541
94.6	0.00471499
94.7	0.00469012
94.8	0.00466316
94.9	0.00463339
95	0.00460236
95.1	0.00456996
95.2	0.00453289
95.3	0.00449252
95.4	0.00445188
95.5	0.00440868
95.6	0.00436194
95.7	0.00431011
95.8	0.00425499
95.9	0.00420219
96	0.00415403
96.1	0.00410821
96.2	0.00406167
96.3	0.00401862
96.4	0.00397942
96.5	0.00394278
96.6	0.00391095
96.7	0.00388222
96.8	0.00385685
96.9	0.00383011
97	0.0038022
97.1	0.0037755
97.2	0.00375089
97.3	0.00372508
97.4	0.00369691
97.5	0.00366506
97.6	0.00363306
97.7	0.00360557
97.8	0.00358221
97.9	0.00355873
98	0.00353738
98.1	0.00350992
98.2	0.00347672
98.3	0.00344548
98.4	0.00341377
98.5	0.00338052
98.6	0.00334713
98.7	0.00331824
98.8	0.00329299
98.9	0.00326832
99	0.00324644
99.1	0.00322268
99.2	0.00319728
99.3	0.00317001
99.4	0.00314545
99.5	0.00311944
99.6	0.00309037
99.7	0.00305678
99.8	0.00302413
99.9	0.00299013
100	0.00295281
100.1	0.00291073
100.2	0.0028695
100.3	0.00282921
100.4	0.00279269
100.5	0.0027666
100.6	0.00274541
100.7	0.00272665
100.8	0.00270632
100.9	0.00268511
101	0.00266639
101.1	0.00265155
101.2	0.00264127
101.3	0.00262947
101.4	0.00261436
101.5	0.0026031
101.6	0.0025969
101.7	0.00259394
101.8	0.00259541
101.9	0.00259447
102	0.00259175
102.1	0.00258787
102.2	0.0025842
102.3	0.00258435
102.4	0.0025834
102.5	0.00258356
102.6	0.00258237
102.7	0.00257906
102.8	0.00257742
102.9	0.00257907
103	0.00258199
103.1	0.00258766
103.2	0.0025948
103.3	0.00260443
103.4	0.00261933
103.5	0.00263094
103.6	0.00264184
103.7	0.00265377
103.8	0.00266555
103.9	0.00267785
104	0.00269046
104.1	0.00270917
104.2	0.00272978
104.3	0.0027534
104.4	0.00278139
104.5	0.00281177
104.6	0.0028446
104.7	0.0028773
104.8	0.00290478
104.9	0.00292913
105	0.00295052
105.1	0.0029722
105.2	0.0029925
105.3	0.00301453
105.4	0.00304047
105.5	0.0030686
105.6	0.00309912
105.7	0.00312928
105.8	0.00315859
105.9	0.00318679
106	0.00321099
106.1	0.00322902
106.2	0.00324539
106.3	0.0032568
106.4	0.00326687
106.5	0.00327776
106.6	0.0032896
106.7	0.00330441
106.8	0.00331755
106.9	0.00332774
107	0.00333351
107.1	0.00333356
107.2	0.00333694
107.3	0.00334101
107.4	0.00334598
107.5	0.00335279
107.6	0.00336276
107.7	0.00337023
107.8	0.00337341
107.9	0.00337894
108	0.00338749
108.1	0.00339425
108.2	0.00339721
108.3	0.0033933
108.4	0.00338493
108.5	0.00337879
108.6	0.00337025
108.7	0.00336144
108.8	0.00334894
108.9	0.0033303
109	0.00330998
109.1	0.0032859
109.2	0.00326097
109.3	0.00323784
109.4	0.00321308
109.5	0.00318877
109.6	0.00316454
109.7	0.00313989
109.8	0.0031148
109.9	0.00308631
110	0.0030569
110.1	0.00302974
110.2	0.0030002
110.3	0.00296852
110.4	0.00293314
110.5	0.00290014
110.6	0.00287118
110.7	0.00284652
110.8	0.00282179
110.9	0.00279871
111	0.00277126
111.1	0.00274037
111.2	0.00270986
111.3	0.00268027
111.4	0.0026561
111.5	0.00263519
111.6	0.0026102
111.7	0.00257828
111.8	0.00254395
111.9	0.0025035
112	0.00245846
112.1	0.00240512
112.2	0.00235297
112.3	0.00230374
112.4	0.00225395
112.5	0.00220308
112.6	0.00215186
112.7	0.00209868
112.8	0.00204605
112.9	0.00199457
113	0.00194243
113.1	0.00188922
113.2	0.00183914
113.3	0.00179029
113.4	0.00174302
113.5	0.00169887
113.6	0.00165687
113.7	0.00161574
113.8	0.00157553
113.9	0.00153965
114	0.00151336
114.1	0.00149097
114.2	0.00147049
114.3	0.00145208
114.4	0.00143122
114.5	0.00140548
114.6	0.00137943
114.7	0.00135577
114.8	0.00133586
114.9	0.00131837
115	0.0013025
115.1	0.00128684
115.2	0.00126813
115.3	0.00124571
115.4	0.00121694
115.5	0.00118471
115.6	0.00115379
115.7	0.00112034
115.8	0.00108723
115.9	0.00105999
116	0.00103475
116.1	0.00100599
116.2	0.000974815
116.3	0.000940873
116.4	0.000909838
116.5	0.00087893
116.6	0.000842643
116.7	0.00080327
116.8	0.000762787
116.9	0.000722922
117	0.00068853
117.1	0.000651454
117.2	0.000613481
117.3	0.000575504
117.4	0.000540872
117.5	0.000507989
117.6	0.000478971
117.7	0.000454047
117.8	0.0004324
117.9	0.000415067
118	0.000399301
118.1	0.000387785
118.2	0.000375672
118.3	0.000362397
118.4	0.000344627
118.5	0.000329071
118.6	0.000322495
118.7	0.000319372
118.8	0.000318955
118.9	0.000323703
119	0.000329288
119.1	0.000331504
119.2	0.000333404
119.3	0.000331975
119.4	0.000326576
119.5	0.000320456
119.6	0.000316421
119.7	0.000312368
119.8	0.000309622
119.9	0.000308283
120	0.00030351
120.1	0.000296193
120.2	0.00028374
120.3	0.000273971
120.4	0.000266937
120.5	0.000265269
120.6	0.000268625
120.7	0.0002755
120.8	0.000279892
120.9	0.000279918
121	0.000284342
121.1	0.000289001
121.2	0.000293153
121.3	0.000294354
121.4	0.000297873
121.5	0.000297293
121.6	0.000292989
121.7	0.000278527
121.8	0.000259317
121.9	0.000234732
122	0.000210329
122.1	0.000191989
122.2	0.000176787
122.3	0.00016574
122.4	0.000155923
122.5	0.000149371
122.6	0.000145381
122.7	0.000145916
122.8	0.000146223
122.9	0.000150877
123	0.00015936
123.1	0.000169866
123.2	0.000179228
123.3	0.000190353
123.4	0.000206125
123.5	0.000223926
123.6	0.000242789
123.7	0.00026449
123.8	0.000287808
123.9	0.000317094
124	0.000346812
124.1	0.000377948
124.2	0.000411834
124.3	0.000443716
124.4	0.000473074
124.5	0.00049693
124.6	0.000522556
124.7	0.000546325
124.8	0.000568529
124.9	0.000592186
125	0.000616992
125.1	0.000637952
125.2	0.000654984
125.3	0.000671738
125.4	0.000686649
125.5	0.000698661
125.6	0.000707104
125.7	0.000713743
125.8	0.000724166
125.9	0.000734825
126	0.000752463
126.1	0.000771655
126.2	0.00079154
126.3	0.000810286
126.4	0.000824295
126.5	0.000837575
126.6	0.000850805
126.7	0.000860158
126.8	0.000869649
126.9	0.000876114
127	0.000882802
127.1	0.000894051
127.2	0.000902428
127.3	0.000914815
127.4	0.000932006
127.5	0.000947061
127.6	0.000960314
127.7	0.000968836
127.8	0.000973626
127.9	0.000977514
128	0.000979573
128.1	0.000974837
128.2	0.000966142
128.3	0.000962318
