LagTime	Correlation

0	2.97865
0.1	2.97364
0.2	2.96615
0.3	2.95809
0.4	2.94993
0.5	2.94178
0.6	2.93367
0.7	2.92562
0.8	2.91763
0.9	2.90969
1	2.90181
1.1	2.89398
1.2	2.88621
1.3	2.87849
1.4	2.87083
1.5	2.8632
1.6	2.85563
1.7	2.8481
1.8	2.84062
1.9	2.8332
2	2.82582
2.1	2.8185
2.2	2.81123
2.3	2.804
2.4	2.79683
2.5	2.7897
2.6	2.78262
2.7	2.77558
2.8	2.7686
2.9	2.76166
3	2.75477
3.1	2.74792
3.2	2.74113
3.3	2.73438
3.4	2.72767
3.5	2.72099
3.6	2.71436
3.7	2.70777
3.8	2.70122
3.9	2.6947
4	2.68822
4.1	2.68179
4.2	2.6754
4.3	2.66905
4.4	2.66272
4.5	2.65642
4.6	2.65016
4.7	2.64392
4.8	2.63772
4.9	2.63155
5	2.62541
5.1	2.6193
5.2	2.61324
5.3	2.60721
5.4	2.60122
5.5	2.59525
5.6	2.58931
5.7	2.58341
5.8	2.57753
5.9	2.57168
6	2.56585
6.1	2.56006
6.2	2.55429
6.3	2.54856
6.4	2.54285
6.5	2.53717
6.6	2.53152
6.7	2.52591
6.8	2.52031
6.9	2.51475
7	2.50922
7.1	2.50371
7.2	2.49822
7.3	2.49276
7.4	2.48732
7.5	2.48191
7.6	2.47651
7.7	2.47113
7.8	2.46578
7.9	2.46046
8	2.45516
8.1	2.44988
8.2	2.44462
8.3	2.43939
8.4	2.43418
8.5	2.429
8.6	2.42384
8.7	2.4187
8.8	2.41359
8.9	2.4085
9	2.40343
9.1	2.39838
9.2	2.39336
9.3	2.38836
9.4	2.38338
9.5	2.37842
9.6	2.37348
9.7	2.36857
9.8	2.36368
9.9	2.3588
10	2.35395
10.1	2.34911
10.2	2.3443
10.3	2.33951
10.4	2.33474
10.5	2.33
10.6	2.32527
10.7	2.32055
10.8	2.31584
10.9	2.31116
11	2.30649
11.1	2.30184
11.2	2.29721
11.3	2.29259
11.4	2.288
11.5	2.28342
11.6	2.27886
11.7	2.27432
11.8	2.26979
11.9	2.26528
12	2.26079
12.1	2.25631
12.2	2.25184
12.3	2.24737
12.4	2.24292
12.5	2.23847
12.6	2.23404
12.7	2.22962
12.8	2.22522
12.9	2.22083
13	2.21647
13.1	2.21211
13.2	2.20777
13.3	2.20344
13.4	2.19913
13.5	2.19483
13.6	2.19054
13.7	2.18627
13.8	2.18202
13.9	2.17778
14	2.17355
14.1	2.16933
14.2	2.16512
14.3	2.16092
14.4	2.15674
14.5	2.15256
14.6	2.14841
14.7	2.14428
14.8	2.14015
14.9	2.13605
15	2.13196
15.1	2.12789
15.2	2.12383
15.3	2.11979
15.4	2.11576
15.5	2.11174
15.6	2.10772
15.7	2.10372
15.8	2.09973
15.9	2.09575
16	2.09179
16.1	2.08785
16.2	2.08392
16.3	2.08001
16.4	2.07611
16.5	2.07221
16.6	2.06833
16.7	2.06446
16.8	2.0606
16.9	2.05676
17	2.05293
17.1	2.0491
17.2	2.04529
17.3	2.04148
17.4	2.03768
17.5	2.03389
17.6	2.03012
17.7	2.02635
17.8	2.02259
17.9	2.01884
18	2.0151
18.1	2.01138
18.2	2.00767
18.3	2.00396
18.4	2.00026
18.5	1.99658
18.6	1.9929
18.7	1.98924
18.8	1.98559
18.9	1.98195
19	1.97832
19.1	1.97469
19.2	1.97108
19.3	1.96747
19.4	1.96388
19.5	1.96029
19.6	1.95671
19.7	1.95314
19.8	1.94958
19.9	1.94603
20	1.94249
20.1	1.93895
20.2	1.93543
20.3	1.93191
20.4	1.9284
20.5	1.9249
20.6	1.92141
20.7	1.91794
20.8	1.91447
20.9	1.91101
21	1.90755
21.1	1.9041
21.2	1.90066
21.3	1.89722
21.4	1.89379
21.5	1.89038
21.6	1.88697
21.7	1.88357
21.8	1.88018
21.9	1.87681
22	1.87345
22.1	1.87009
22.2	1.86674
22.3	1.86341
22.4	1.86008
22.5	1.85676
22.6	1.85345
22.7	1.85015
22.8	1.84685
22.9	1.84356
23	1.84027
23.1	1.83698
23.2	1.83371
23.3	1.83044
23.4	1.82718
23.5	1.82392
23.6	1.82068
23.7	1.81744
23.8	1.81421
23.9	1.81099
24	1.80779
24.1	1.8046
24.2	1.80142
24.3	1.79825
24.4	1.79509
24.5	1.79194
24.6	1.78879
24.7	1.78564
24.8	1.7825
24.9	1.77937
25	1.77623
25.1	1.77311
25.2	1.76998
25.3	1.76687
25.4	1.76375
25.5	1.76064
25.6	1.75753
25.7	1.75442
25.8	1.75132
25.9	1.74823
26	1.74515
26.1	1.74207
26.2	1.73899
26.3	1.73592
26.4	1.73286
26.5	1.72981
26.6	1.72676
26.7	1.72372
26.8	1.72069
26.9	1.71767
27	1.71466
27.1	1.71166
27.2	1.70866
27.3	1.70566
27.4	1.70268
27.5	1.6997
27.6	1.69673
27.7	1.69377
27.8	1.69081
27.9	1.68786
28	1.68491
28.1	1.68196
28.2	1.67902
28.3	1.67608
28.4	1.67315
28.5	1.67023
28.6	1.66731
28.7	1.66439
28.8	1.66149
28.9	1.6586
29	1.65571
29.1	1.65284
29.2	1.64998
29.3	1.64713
29.4	1.64428
29.5	1.64144
29.6	1.63861
29.7	1.63578
29.8	1.63296
29.9	1.63014
30	1.62733
30.1	1.62453
30.2	1.62174
30.3	1.61895
30.4	1.61616
30.5	1.61338
30.6	1.61059
30.7	1.60781
30.8	1.60504
30.9	1.60226
31	1.5995
31.1	1.59674
31.2	1.59398
31.3	1.59123
31.4	1.58848
31.5	1.58574
31.6	1.58299
31.7	1.58025
31.8	1.5775
31.9	1.57477
32	1.57204
32.1	1.56931
32.2	1.56659
32.3	1.56388
32.4	1.56117
32.5	1.55847
32.6	1.55577
32.7	1.55309
32.8	1.55042
32.9	1.54774
33	1.54508
33.1	1.54241
33.2	1.53976
33.3	1.53711
33.4	1.53446
33.5	1.53181
33.6	1.52917
33.7	1.52653
33.8	1.5239
33.9	1.52128
34	1.51866
34.1	1.51606
34.2	1.51345
34.3	1.51085
34.4	1.50825
34.5	1.50565
34.6	1.50306
34.7	1.50047
34.8	1.4979
34.9	1.49533
35	1.49276
35.1	1.4902
35.2	1.48764
35.3	1.48507
35.4	1.48252
35.5	1.47997
35.6	1.47744
35.7	1.4749
35.8	1.47237
35.9	1.46985
36	1.46734
36.1	1.46483
36.2	1.46233
36.3	1.45983
36.4	1.45734
36.5	1.45485
36.6	1.45236
36.7	1.44988
36.8	1.4474
36.9	1.44492
37	1.44245
37.1	1.43997
37.2	1.43749
37.3	1.43501
37.4	1.43254
37.5	1.43008
37.6	1.4276
37.7	1.42513
37.8	1.42265
37.9	1.42018
38	1.41771
38.1	1.41525
38.2	1.41279
38.3	1.41033
38.4	1.40789
38.5	1.40545
38.6	1.40302
38.7	1.4006
38.8	1.39818
38.9	1.39577
39	1.39336
39.1	1.39096
39.2	1.38857
39.3	1.38618
39.4	1.3838
39.5	1.38141
39.6	1.37903
39.7	1.37666
39.8	1.37429
39.9	1.37193
40	1.36959
40.1	1.36725
40.2	1.36492
40.3	1.3626
40.4	1.36028
40.5	1.35796
40.6	1.35564
40.7	1.35333
40.8	1.35101
40.9	1.34869
41	1.34638
41.1	1.34407
41.2	1.34177
41.3	1.33948
41.4	1.33718
41.5	1.33488
41.6	1.33259
41.7	1.33029
41.8	1.328
41.9	1.32571
42	1.32343
42.1	1.32116
42.2	1.3189
42.3	1.31665
42.4	1.31439
42.5	1.31215
42.6	1.3099
42.7	1.30767
42.8	1.30543
42.9	1.30319
43	1.30097
43.1	1.29874
43.2	1.29652
43.3	1.2943
43.4	1.29209
43.5	1.28987
43.6	1.28767
43.7	1.28546
43.8	1.28326
43.9	1.28106
44	1.27886
44.1	1.27666
44.2	1.27448
44.3	1.27229
44.4	1.2701
44.5	1.26792
44.6	1.26574
44.7	1.26357
44.8	1.26139
44.9	1.25922
45	1.25705
45.1	1.2549
45.2	1.25275
45.3	1.2506
45.4	1.24845
45.5	1.2463
45.6	1.24416
45.7	1.24202
45.8	1.23988
45.9	1.23775
46	1.23562
46.1	1.23349
46.2	1.23137
46.3	1.22924
46.4	1.22711
46.5	1.22499
46.6	1.22287
46.7	1.22076
46.8	1.21866
46.9	1.21656
47	1.21447
47.1	1.21238
47.2	1.21031
47.3	1.20823
47.4	1.20615
47.5	1.20407
47.6	1.20198
47.7	1.19989
47.8	1.19781
47.9	1.19573
48	1.19366
48.1	1.1916
48.2	1.18954
48.3	1.18749
48.4	1.18544
48.5	1.1834
48.6	1.18137
48.7	1.17934
48.8	1.17732
48.9	1.1753
49	1.17329
49.1	1.17127
49.2	1.16925
49.3	1.16723
49.4	1.16521
49.5	1.1632
49.6	1.16118
49.7	1.15918
49.8	1.15718
49.9	1.15519
50	1.1532
50.1	1.15121
50.2	1.14922
50.3	1.14723
50.4	1.14525
50.5	1.14327
50.6	1.1413
50.7	1.13933
50.8	1.13737
50.9	1.13542
51	1.13346
51.1	1.13151
51.2	1.12956
51.3	1.12761
51.4	1.12566
51.5	1.12372
51.6	1.12178
51.7	1.11984
51.8	1.11791
51.9	1.11598
52	1.11406
52.1	1.11213
52.2	1.11022
52.3	1.10831
52.4	1.1064
52.5	1.1045
52.6	1.1026
52.7	1.10071
52.8	1.09882
52.9	1.09694
53	1.09506
53.1	1.09319
53.2	1.09133
53.3	1.08947
53.4	1.08761
53.5	1.08575
53.6	1.0839
53.7	1.08205
53.8	1.0802
53.9	1.07835
54	1.07651
54.1	1.07466
54.2	1.07282
54.3	1.07098
54.4	1.06914
54.5	1.06731
54.6	1.06548
54.7	1.06364
54.8	1.06181
54.9	1.05998
55	1.05815
55.1	1.05632
55.2	1.0545
55.3	1.05269
55.4	1.05088
55.5	1.04907
55.6	1.04727
55.7	1.04547
55.8	1.04368
55.9	1.04188
56	1.04009
56.1	1.03829
56.2	1.03649
56.3	1.03468
56.4	1.03288
56.5	1.03107
56.6	1.02926
56.7	1.02746
56.8	1.02566
56.9	1.02386
57	1.02207
57.1	1.02028
57.2	1.0185
57.3	1.01672
57.4	1.01495
57.5	1.01317
57.6	1.0114
57.7	1.00963
57.8	1.00787
57.9	1.00612
58	1.00437
58.1	1.00261
58.2	1.00086
58.3	0.999117
58.4	0.997379
58.5	0.995642
58.6	0.993906
58.7	0.992171
58.8	0.990441
58.9	0.988714
59	0.98699
59.1	0.985267
59.2	0.983542
59.3	0.981815
59.4	0.980089
59.5	0.97837
59.6	0.976651
59.7	0.974934
59.8	0.97322
59.9	0.97151
60	0.969804
60.1	0.968104
60.2	0.966407
60.3	0.964712
60.4	0.963021
60.5	0.961339
60.6	0.959661
60.7	0.957989
60.8	0.956319
60.9	0.954652
61	0.952985
61.1	0.951319
61.2	0.949655
61.3	0.947997
61.4	0.946339
61.5	0.944682
61.6	0.943027
61.7	0.941375
61.8	0.939729
61.9	0.938088
62	0.936447
62.1	0.934803
62.2	0.933164
62.3	0.931529
62.4	0.929894
62.5	0.928264
62.6	0.926635
62.7	0.925003
62.8	0.923372
62.9	0.921745
63	0.920121
63.1	0.9185
63.2	0.916884
63.3	0.915272
63.4	0.913655
63.5	0.912034
63.6	0.910415
63.7	0.908798
63.8	0.907185
63.9	0.905574
64	0.903969
64.1	0.902373
64.2	0.900781
64.3	0.899185
64.4	0.897587
64.5	0.895986
64.6	0.894385
64.7	0.892787
64.8	0.891192
64.9	0.889603
65	0.888019
65.1	0.886442
65.2	0.884876
65.3	0.883314
65.4	0.881754
65.5	0.880193
65.6	0.87863
65.7	0.877065
65.8	0.875502
65.9	0.87394
66	0.872378
66.1	0.870812
66.2	0.869249
66.3	0.867686
66.4	0.866123
66.5	0.864559
66.6	0.862998
66.7	0.861441
66.8	0.859887
66.9	0.858337
67	0.856787
67.1	0.855238
67.2	0.853691
67.3	0.852147
67.4	0.850602
67.5	0.849055
67.6	0.847512
67.7	0.845971
67.8	0.844431
67.9	0.842893
68	0.841362
68.1	0.839839
68.2	0.838319
68.3	0.836805
68.4	0.835292
68.5	0.833781
68.6	0.832268
68.7	0.830753
68.8	0.829241
68.9	0.827729
69	0.826218
69.1	0.824704
69.2	0.82319
69.3	0.821678
69.4	0.820171
69.5	0.818669
69.6	0.817177
69.7	0.815692
69.8	0.814215
69.9	0.812747
70	0.811292
70.1	0.809846
70.2	0.808405
70.3	0.806971
70.4	0.80554
70.5	0.804108
70.6	0.802677
70.7	0.801247
70.8	0.79982
70.9	0.798398
71	0.796984
71.1	0.795574
71.2	0.794166
71.3	0.792757
71.4	0.79135
71.5	0.789948
71.6	0.788553
71.7	0.787163
71.8	0.785776
71.9	0.784394
72	0.783016
72.1	0.781645
72.2	0.780283
72.3	0.778928
72.4	0.777577
72.5	0.776233
72.6	0.774898
72.7	0.773565
72.8	0.772237
72.9	0.770917
73	0.769603
73.1	0.768289
73.2	0.766977
73.3	0.765668
73.4	0.764361
73.5	0.763056
73.6	0.761754
73.7	0.760455
73.8	0.75916
73.9	0.757872
74	0.756587
74.1	0.755303
74.2	0.75402
74.3	0.752737
74.4	0.751453
74.5	0.750173
74.6	0.748898
74.7	0.747628
74.8	0.746358
74.9	0.745092
75	0.743825
75.1	0.742554
75.2	0.741287
75.3	0.740019
75.4	0.738752
75.5	0.737489
75.6	0.736231
75.7	0.734977
75.8	0.733733
75.9	0.732494
76	0.731255
76.1	0.730014
76.2	0.728772
76.3	0.727534
76.4	0.7263
76.5	0.725073
76.6	0.723854
76.7	0.722635
76.8	0.721417
76.9	0.720199
77	0.718979
77.1	0.71776
77.2	0.716544
77.3	0.715335
77.4	0.714128
77.5	0.712922
77.6	0.711718
77.7	0.710512
77.8	0.709312
77.9	0.708116
78	0.70692
78.1	0.705725
78.2	0.704529
78.3	0.703332
78.4	0.70214
78.5	0.700955
78.6	0.699774
78.7	0.698594
78.8	0.69742
78.9	0.696249
79	0.695085
79.1	0.693923
79.2	0.692764
79.3	0.691607
79.4	0.690455
79.5	0.689307
79.6	0.688168
79.7	0.687031
79.8	0.685894
79.9	0.684754
80	0.683608
80.1	0.682454
80.2	0.681296
80.3	0.680137
80.4	0.678975
80.5	0.677817
80.6	0.676655
80.7	0.675494
80.8	0.674335
80.9	0.673174
81	0.672012
81.1	0.670844
81.2	0.669675
81.3	0.6685
81.4	0.667322
81.5	0.666143
81.6	0.664965
81.7	0.663788
81.8	0.662612
81.9	0.661438
82	0.660272
82.1	0.65911
82.2	0.657954
82.3	0.656794
82.4	0.655628
82.5	0.654457
82.6	0.653281
82.7	0.652107
82.8	0.650934
82.9	0.649762
83	0.648586
83.1	0.647412
83.2	0.646239
83.3	0.645069
83.4	0.6439
83.5	0.642731
83.6	0.641562
83.7	0.640397
83.8	0.639236
83.9	0.638076
84	0.636915
84.1	0.635756
84.2	0.634596
84.3	0.633432
84.4	0.632273
84.5	0.631116
84.6	0.62996
84.7	0.628804
84.8	0.627651
84.9	0.6265
85	0.625352
85.1	0.624199
85.2	0.623042
85.3	0.621882
85.4	0.620723
85.5	0.619564
85.6	0.61841
85.7	0.617259
85.8	0.616117
85.9	0.614983
86	0.613852
86.1	0.612722
86.2	0.611594
86.3	0.610473
86.4	0.609355
86.5	0.608238
86.6	0.607119
86.7	0.605995
86.8	0.604869
86.9	0.603743
87	0.602616
87.1	0.601487
87.2	0.600357
87.3	0.599231
87.4	0.59811
87.5	0.596992
87.6	0.595871
87.7	0.594754
87.8	0.59364
87.9	0.592524
88	0.591404
88.1	0.590287
88.2	0.589176
88.3	0.58807
88.4	0.586972
88.5	0.585878
88.6	0.584788
88.7	0.583703
88.8	0.582618
88.9	0.581532
89	0.58045
89.1	0.579374
89.2	0.578297
89.3	0.577224
89.4	0.576154
89.5	0.57509
89.6	0.574028
89.7	0.572968
89.8	0.57191
89.9	0.57086
90	0.569817
90.1	0.56878
90.2	0.567747
90.3	0.566723
90.4	0.565703
90.5	0.564686
90.6	0.563671
90.7	0.562655
90.8	0.561645
90.9	0.560639
91	0.559636
91.1	0.558639
91.2	0.55764
91.3	0.556644
91.4	0.555649
91.5	0.554658
91.6	0.553672
91.7	0.552687
91.8	0.551705
91.9	0.550726
92	0.549752
92.1	0.548786
92.2	0.547823
92.3	0.546861
92.4	0.545896
92.5	0.544926
92.6	0.54395
92.7	0.542973
92.8	0.541997
92.9	0.541026
93	0.540054
93.1	0.539081
93.2	0.538102
93.3	0.537123
93.4	0.536146
93.5	0.535171
93.6	0.534195
93.7	0.533219
93.8	0.532236
93.9	0.531254
94	0.530271
94.1	0.529291
94.2	0.528313
94.3	0.527333
94.4	0.526357
94.5	0.525385
94.6	0.524416
94.7	0.523449
94.8	0.522487
94.9	0.521524
95	0.520567
95.1	0.519617
95.2	0.51868
95.3	0.517752
95.4	0.516828
95.5	0.515906
95.6	0.514984
95.7	0.514059
95.8	0.513136
95.9	0.512219
96	0.511304
96.1	0.510389
96.2	0.509471
96.3	0.508549
96.4	0.507625
96.5	0.506696
96.6	0.505764
96.7	0.504836
96.8	0.503911
96.9	0.502991
97	0.502077
97.1	0.501165
97.2	0.500254
97.3	0.499345
97.4	0.498441
97.5	0.49754
97.6	0.496649
97.7	0.495765
97.8	0.494885
97.9	0.494001
98	0.493111
98.1	0.49222
98.2	0.491333
98.3	0.490445
98.4	0.489552
98.5	0.488656
98.6	0.487764
98.7	0.486878
98.8	0.485997
98.9	0.485119
99	0.484243
99.1	0.483369
99.2	0.482495
99.3	0.481627
99.4	0.480757
99.5	0.479884
99.6	0.479012
99.7	0.478141
99.8	0.477274
99.9	0.476413
100	0.475553
100.1	0.474696
100.2	0.473841
100.3	0.472993
100.4	0.472147
100.5	0.471307
100.6	0.47047
100.7	0.469633
100.8	0.468799
100.9	0.467966
101	0.467138
101.1	0.466314
101.2	0.465492
101.3	0.464674
101.4	0.46386
101.5	0.463051
101.6	0.462247
101.7	0.461449
101.8	0.460659
101.9	0.45987
102	0.459082
102.1	0.458292
102.2	0.457503
102.3	0.456716
102.4	0.455933
102.5	0.455153
102.6	0.454376
102.7	0.453599
102.8	0.45282
102.9	0.452042
103	0.451267
103.1	0.450492
103.2	0.449713
103.3	0.44893
103.4	0.448141
103.5	0.447355
103.6	0.446573
103.7	0.445798
103.8	0.445026
103.9	0.444262
104	0.443502
104.1	0.442747
104.2	0.441992
104.3	0.441237
104.4	0.440477
104.5	0.439714
104.6	0.438953
104.7	0.438193
104.8	0.437431
104.9	0.43667
105	0.435915
105.1	0.435166
105.2	0.434421
105.3	0.433672
105.4	0.432921
105.5	0.432174
105.6	0.431432
105.7	0.430695
105.8	0.429961
105.9	0.429228
106	0.428491
106.1	0.427753
106.2	0.427018
106.3	0.426284
106.4	0.425556
106.5	0.424829
106.6	0.424105
106.7	0.423388
106.8	0.422674
106.9	0.421961
107	0.421249
107.1	0.420542
107.2	0.419835
107.3	0.419128
107.4	0.41842
107.5	0.417713
107.6	0.417012
107.7	0.416312
107.8	0.415614
107.9	0.414914
108	0.414214
108.1	0.413517
108.2	0.412819
108.3	0.412125
108.4	0.411434
108.5	0.410743
108.6	0.41005
108.7	0.409355
108.8	0.408664
108.9	0.407976
109	0.407288
109.1	0.406603
109.2	0.405917
109.3	0.405236
109.4	0.404557
109.5	0.403885
109.6	0.403219
109.7	0.402553
109.8	0.401884
109.9	0.401213
110	0.400543
110.1	0.39987
110.2	0.399192
110.3	0.398511
110.4	0.397834
110.5	0.397164
110.6	0.396498
110.7	0.395833
110.8	0.395171
110.9	0.394513
111	0.393854
111.1	0.393186
111.2	0.392512
111.3	0.391839
111.4	0.391172
111.5	0.390505
111.6	0.389836
111.7	0.389169
111.8	0.388507
111.9	0.38785
112	0.387195
112.1	0.386542
112.2	0.385887
112.3	0.385231
112.4	0.384573
112.5	0.383913
112.6	0.383251
112.7	0.382585
112.8	0.381912
112.9	0.381235
113	0.380558
113.1	0.37988
113.2	0.379201
113.3	0.37852
113.4	0.377842
113.5	0.377167
113.6	0.376496
113.7	0.375824
113.8	0.375153
113.9	0.374489
114	0.373832
114.1	0.373177
114.2	0.372523
114.3	0.371871
114.4	0.371222
114.5	0.370577
114.6	0.369936
114.7	0.369299
114.8	0.368665
114.9	0.368038
115	0.367412
115.1	0.36679
115.2	0.366174
115.3	0.365563
115.4	0.364955
115.5	0.36435
115.6	0.363747
115.7	0.363138
115.8	0.362529
115.9	0.361914
116	0.361295
116.1	0.360675
116.2	0.360056
116.3	0.359439
116.4	0.358819
116.5	0.358199
116.6	0.357582
116.7	0.356969
116.8	0.356359
116.9	0.355748
117	0.355142
117.1	0.354538
117.2	0.353929
117.3	0.353317
117.4	0.352707
117.5	0.352103
117.6	0.351504
117.7	0.350905
117.8	0.350301
117.9	0.349694
118	0.349091
118.1	0.348489
118.2	0.347883
118.3	0.347277
118.4	0.346673
118.5	0.346071
118.6	0.34547
118.7	0.344872
118.8	0.344274
118.9	0.343675
119	0.343076
119.1	0.342485
119.2	0.341904
119.3	0.341325
119.4	0.340747
119.5	0.340169
119.6	0.339585
119.7	0.338999
119.8	0.33841
119.9	0.337824
120	0.337245
120.1	0.336669
120.2	0.336092
120.3	0.335516
120.4	0.334943
120.5	0.334377
120.6	0.333814
120.7	0.333259
120.8	0.332706
120.9	0.332149
121	0.331592
121.1	0.331039
121.2	0.330488
121.3	0.329939
121.4	0.329391
121.5	0.328845
121.6	0.328297
121.7	0.327745
121.8	0.3272
121.9	0.32666
122	0.326121
122.1	0.325587
122.2	0.325058
122.3	0.324529
122.4	0.324008
122.5	0.323488
122.6	0.322971
122.7	0.322449
122.8	0.321929
122.9	0.321406
123	0.320877
123.1	0.320342
123.2	0.319803
123.3	0.319262
123.4	0.318723
123.5	0.318189
123.6	0.317652
123.7	0.317116
123.8	0.316583
123.9	0.31605
124	0.31552
124.1	0.31499
124.2	0.31446
124.3	0.31393
124.4	0.313394
124.5	0.312856
124.6	0.312319
124.7	0.311774
124.8	0.311228
124.9	0.310686
125	0.310141
125.1	0.309589
125.2	0.309037
125.3	0.308487
125.4	0.307938
125.5	0.307383
125.6	0.306826
125.7	0.306267
125.8	0.305708
125.9	0.305153
126	0.304602
126.1	0.304055
126.2	0.303514
126.3	0.302976
126.4	0.302437
126.5	0.301898
126.6	0.301356
126.7	0.300814
126.8	0.300269
126.9	0.299723
127	0.299174
127.1	0.298621
127.2	0.298065
127.3	0.297511
127.4	0.296966
127.5	0.296428
127.6	0.295898
127.7	0.295375
127.8	0.294856
127.9	0.294339
128	0.293821
128.1	0.293302
128.2	0.292781
128.3	0.292259
128.4	0.291739
128.5	0.291222
128.6	0.290709
128.7	0.290199
128.8	0.289691
128.9	0.289186
129	0.288685
129.1	0.288189
129.2	0.287692
129.3	0.287196
129.4	0.2867
129.5	0.286204
129.6	0.285709
129.7	0.285217
129.8	0.284731
129.9	0.28425
130	0.283772
130.1	0.283297
130.2	0.282823
130.3	0.282352
130.4	0.281887
130.5	0.281426
130.6	0.280969
130.7	0.280519
130.8	0.280072
130.9	0.27963
131	0.27919
131.1	0.278748
131.2	0.278302
131.3	0.277853
131.4	0.277403
131.5	0.276951
131.6	0.276504
131.7	0.276061
131.8	0.27562
131.9	0.275174
132	0.274727
132.1	0.274281
132.2	0.273831
132.3	0.273376
132.4	0.272915
132.5	0.272455
132.6	0.271996
132.7	0.271535
132.8	0.271071
132.9	0.270604
133	0.270131
133.1	0.26966
133.2	0.269186
133.3	0.268714
133.4	0.268245
133.5	0.26778
133.6	0.267321
133.7	0.266875
133.8	0.266439
133.9	0.266006
134	0.265573
134.1	0.265139
134.2	0.264701
134.3	0.264262
134.4	0.263821
134.5	0.263385
134.6	0.262954
134.7	0.262528
134.8	0.2621
134.9	0.261674
135	0.261252
135.1	0.260826
135.2	0.260399
135.3	0.259971
135.4	0.259545
135.5	0.259119
135.6	0.258687
135.7	0.258252
135.8	0.257816
135.9	0.257386
136	0.25696
136.1	0.256536
136.2	0.256113
136.3	0.255686
136.4	0.255257
136.5	0.254829
136.6	0.254399
136.7	0.25397
136.8	0.253546
136.9	0.253123
137	0.252704
137.1	0.252284
137.2	0.251864
137.3	0.251443
137.4	0.251023
137.5	0.250609
137.6	0.250199
137.7	0.249792
137.8	0.249384
137.9	0.248977
138	0.248571
138.1	0.24817
138.2	0.247768
138.3	0.247364
138.4	0.246961
138.5	0.246558
138.6	0.246158
138.7	0.245762
138.8	0.245365
138.9	0.244964
139	0.244565
139.1	0.244167
139.2	0.243773
139.3	0.243384
139.4	0.242993
139.5	0.242608
139.6	0.24223
139.7	0.241857
139.8	0.241491
139.9	0.241126
140	0.240763
140.1	0.240399
140.2	0.240034
140.3	0.23966
140.4	0.239283
140.5	0.238909
140.6	0.238536
140.7	0.238165
140.8	0.237797
140.9	0.237434
141	0.237078
141.1	0.236725
141.2	0.236375
141.3	0.236028
141.4	0.235685
141.5	0.235344
141.6	0.235
141.7	0.234655
141.8	0.234306
141.9	0.233956
142	0.233608
142.1	0.233262
142.2	0.23292
142.3	0.232578
142.4	0.232234
142.5	0.231891
142.6	0.231547
142.7	0.231208
142.8	0.230865
142.9	0.230523
143	0.230184
143.1	0.229843
143.2	0.229499
143.3	0.229159
143.4	0.228816
143.5	0.228472
143.6	0.228127
143.7	0.227781
143.8	0.227435
143.9	0.227092
144	0.22676
144.1	0.226436
144.2	0.226114
144.3	0.225793
144.4	0.225471
144.5	0.225145
144.6	0.224821
144.7	0.224497
144.8	0.224174
144.9	0.223857
145	0.223545
145.1	0.223236
145.2	0.222925
145.3	0.222609
145.4	0.222293
145.5	0.221972
145.6	0.221653
145.7	0.221335
145.8	0.221014
145.9	0.220688
146	0.220359
146.1	0.22003
146.2	0.219699
146.3	0.219365
146.4	0.219031
146.5	0.218697
146.6	0.218359
146.7	0.218027
146.8	0.217696
146.9	0.217363
147	0.217028
147.1	0.216693
147.2	0.216361
147.3	0.216028
