LagTime	Correlation

0	1.99808
0.1	1.99307
0.2	1.98558
0.3	1.97751
0.4	1.96935
0.5	1.96121
0.6	1.95311
0.7	1.94508
0.8	1.93711
0.9	1.9292
1	1.92135
1.1	1.91357
1.2	1.90584
1.3	1.89817
1.4	1.89055
1.5	1.883
1.6	1.87551
1.7	1.86808
1.8	1.86071
1.9	1.85339
2	1.84613
2.1	1.83892
2.2	1.83177
2.3	1.82468
2.4	1.81763
2.5	1.81064
2.6	1.8037
2.7	1.79681
2.8	1.78997
2.9	1.78318
3	1.77644
3.1	1.76974
3.2	1.7631
3.3	1.75649
3.4	1.74994
3.5	1.74343
3.6	1.73697
3.7	1.73056
3.8	1.72419
3.9	1.71787
4	1.71159
4.1	1.70536
4.2	1.69917
4.3	1.69303
4.4	1.68693
4.5	1.68087
4.6	1.67485
4.7	1.66886
4.8	1.66291
4.9	1.657
5	1.65114
5.1	1.64531
5.2	1.63953
5.3	1.63379
5.4	1.62809
5.5	1.62244
5.6	1.61681
5.7	1.61122
5.8	1.60566
5.9	1.60013
6	1.59464
6.1	1.58917
6.2	1.58374
6.3	1.57834
6.4	1.57297
6.5	1.56764
6.6	1.56234
6.7	1.55706
6.8	1.55182
6.9	1.5466
7	1.54143
7.1	1.53629
7.2	1.53119
7.3	1.52611
7.4	1.52106
7.5	1.51604
7.6	1.51105
7.7	1.50609
7.8	1.50115
7.9	1.49625
8	1.49137
8.1	1.48653
8.2	1.48172
8.3	1.47693
8.4	1.47217
8.5	1.46744
8.6	1.46273
8.7	1.45805
8.8	1.4534
8.9	1.44877
9	1.44416
9.1	1.43958
9.2	1.43503
9.3	1.43051
9.4	1.42601
9.5	1.42154
9.6	1.41709
9.7	1.41267
9.8	1.40828
9.9	1.40391
10	1.39957
10.1	1.39524
10.2	1.39094
10.3	1.38666
10.4	1.3824
10.5	1.37817
10.6	1.37396
10.7	1.36977
10.8	1.36561
10.9	1.36146
11	1.35734
11.1	1.35324
11.2	1.34917
11.3	1.34511
11.4	1.34108
11.5	1.33708
11.6	1.33309
11.7	1.32913
11.8	1.32519
11.9	1.32127
12	1.31737
12.1	1.3135
12.2	1.30965
12.3	1.30581
12.4	1.30199
12.5	1.29817
12.6	1.29437
12.7	1.29058
12.8	1.28681
12.9	1.28305
13	1.27931
13.1	1.27558
13.2	1.27188
13.3	1.2682
13.4	1.26453
13.5	1.26088
13.6	1.25725
13.7	1.25363
13.8	1.25002
13.9	1.24643
14	1.24285
14.1	1.23929
14.2	1.23575
14.3	1.23223
14.4	1.22873
14.5	1.22525
14.6	1.22178
14.7	1.21834
14.8	1.21491
14.9	1.2115
15	1.20811
15.1	1.20474
15.2	1.20138
15.3	1.19803
15.4	1.19471
15.5	1.1914
15.6	1.18811
15.7	1.18484
15.8	1.18159
15.9	1.17835
16	1.17513
16.1	1.17192
16.2	1.16872
16.3	1.16553
16.4	1.16236
16.5	1.15921
16.6	1.15606
16.7	1.15292
16.8	1.1498
16.9	1.14668
17	1.14358
17.1	1.1405
17.2	1.13743
17.3	1.13437
17.4	1.13131
17.5	1.12827
17.6	1.12525
17.7	1.12224
17.8	1.11924
17.9	1.11625
18	1.11326
18.1	1.11028
18.2	1.10731
18.3	1.10435
18.4	1.10139
18.5	1.09846
18.6	1.09553
18.7	1.09263
18.8	1.08974
18.9	1.08686
19	1.08399
19.1	1.08114
19.2	1.0783
19.3	1.07548
19.4	1.07266
19.5	1.06984
19.6	1.06704
19.7	1.06424
19.8	1.06145
19.9	1.05866
20	1.05588
20.1	1.05312
20.2	1.05036
20.3	1.04762
20.4	1.04489
20.5	1.04216
20.6	1.03946
20.7	1.03676
20.8	1.03408
20.9	1.0314
21	1.02872
21.1	1.02606
21.2	1.02341
21.3	1.02077
21.4	1.01813
21.5	1.01551
21.6	1.0129
21.7	1.01031
21.8	1.00772
21.9	1.00515
22	1.00259
22.1	1.00003
22.2	0.997484
22.3	0.994941
22.4	0.992403
22.5	0.989878
22.6	0.987368
22.7	0.984868
22.8	0.982382
22.9	0.979911
23	0.977454
23.1	0.975009
23.2	0.972576
23.3	0.97015
23.4	0.96773
23.5	0.965314
23.6	0.962905
23.7	0.960506
23.8	0.95811
23.9	0.955719
24	0.953335
24.1	0.950961
24.2	0.948594
24.3	0.946238
24.4	0.943889
24.5	0.941551
24.6	0.939229
24.7	0.936922
24.8	0.934627
24.9	0.93234
25	0.930061
25.1	0.927788
25.2	0.92552
25.3	0.92326
25.4	0.921006
25.5	0.918756
25.6	0.916513
25.7	0.914272
25.8	0.912031
25.9	0.909794
26	0.907566
26.1	0.905351
26.2	0.903145
26.3	0.900946
26.4	0.898758
26.5	0.896577
26.6	0.894404
26.7	0.892235
26.8	0.890074
26.9	0.887921
27	0.885779
27.1	0.883649
27.2	0.88152
27.3	0.87939
27.4	0.87726
27.5	0.875138
27.6	0.873024
27.7	0.870915
27.8	0.868807
27.9	0.866702
28	0.864601
28.1	0.862501
28.2	0.8604
28.3	0.858306
28.4	0.856217
28.5	0.85414
28.6	0.852071
28.7	0.850013
28.8	0.847963
28.9	0.845919
29	0.843885
29.1	0.841864
29.2	0.839852
29.3	0.837846
29.4	0.835849
29.5	0.833862
29.6	0.831882
29.7	0.829904
29.8	0.827931
29.9	0.825963
30	0.824002
30.1	0.822046
30.2	0.820092
30.3	0.818142
30.4	0.816198
30.5	0.814254
30.6	0.812316
30.7	0.810379
30.8	0.808441
30.9	0.806509
31	0.804588
31.1	0.802667
31.2	0.800747
31.3	0.798827
31.4	0.796912
31.5	0.795
31.6	0.793098
31.7	0.7912
31.8	0.789307
31.9	0.787418
32	0.785537
32.1	0.783661
32.2	0.781788
32.3	0.779922
32.4	0.77806
32.5	0.776201
32.6	0.774349
32.7	0.7725
32.8	0.770652
32.9	0.768805
33	0.766964
33.1	0.765122
33.2	0.763281
33.3	0.761437
33.4	0.759598
33.5	0.757763
33.6	0.755931
33.7	0.754098
33.8	0.75227
33.9	0.750446
34	0.748628
34.1	0.746819
34.2	0.745018
34.3	0.743222
34.4	0.741431
34.5	0.739649
34.6	0.737876
34.7	0.736108
34.8	0.734348
34.9	0.732594
35	0.730838
35.1	0.729083
35.2	0.727335
35.3	0.725593
35.4	0.723862
35.5	0.722137
35.6	0.720414
35.7	0.718695
35.8	0.716975
35.9	0.715259
36	0.713549
36.1	0.711844
36.2	0.710142
36.3	0.708445
36.4	0.706753
36.5	0.705066
36.6	0.703385
36.7	0.701708
36.8	0.700039
36.9	0.698378
37	0.696729
37.1	0.695089
37.2	0.693459
37.3	0.691839
37.4	0.690224
37.5	0.688612
37.6	0.687007
37.7	0.685406
37.8	0.683816
37.9	0.682232
38	0.680652
38.1	0.679075
38.2	0.677505
38.3	0.675938
38.4	0.674371
38.5	0.672809
38.6	0.67125
38.7	0.669697
38.8	0.668146
38.9	0.666596
39	0.665047
39.1	0.663507
39.2	0.661974
39.3	0.66045
39.4	0.658937
39.5	0.657439
39.6	0.655943
39.7	0.654448
39.8	0.65295
39.9	0.651453
40	0.649952
40.1	0.648455
40.2	0.646965
40.3	0.645479
40.4	0.643999
40.5	0.64252
40.6	0.641044
40.7	0.63957
40.8	0.638104
40.9	0.636643
41	0.635185
41.1	0.633733
41.2	0.632291
41.3	0.630857
41.4	0.629428
41.5	0.628003
41.6	0.626582
41.7	0.625163
41.8	0.623745
41.9	0.622327
42	0.62091
42.1	0.619487
42.2	0.618067
42.3	0.616653
42.4	0.615243
42.5	0.613833
42.6	0.612426
42.7	0.611022
42.8	0.609617
42.9	0.608211
43	0.606806
43.1	0.605406
43.2	0.604013
43.3	0.602632
43.4	0.601254
43.5	0.599884
43.6	0.598518
43.7	0.597156
43.8	0.595795
43.9	0.594433
44	0.593069
44.1	0.591702
44.2	0.590333
44.3	0.588964
44.4	0.587597
44.5	0.586235
44.6	0.584878
44.7	0.583528
44.8	0.582186
44.9	0.580849
45	0.579511
45.1	0.578174
45.2	0.576835
45.3	0.575493
45.4	0.574151
45.5	0.57281
45.6	0.571473
45.7	0.570135
45.8	0.568801
45.9	0.567474
46	0.566146
46.1	0.56482
46.2	0.56349
46.3	0.562157
46.4	0.560829
46.5	0.559507
46.6	0.558194
46.7	0.556889
46.8	0.555589
46.9	0.554293
47	0.552998
47.1	0.551707
47.2	0.550415
47.3	0.54912
47.4	0.547825
47.5	0.546527
47.6	0.545225
47.7	0.543923
47.8	0.542627
47.9	0.541336
48	0.540051
48.1	0.538772
48.2	0.537499
48.3	0.53623
48.4	0.534961
48.5	0.533695
48.6	0.532435
48.7	0.531178
48.8	0.529925
48.9	0.528679
49	0.527439
49.1	0.526203
49.2	0.524966
49.3	0.523729
49.4	0.522501
49.5	0.521279
49.6	0.52006
49.7	0.518841
49.8	0.517623
49.9	0.516406
50	0.515187
50.1	0.513969
50.2	0.512749
50.3	0.511527
50.4	0.510306
50.5	0.50909
50.6	0.507877
50.7	0.506671
50.8	0.505467
50.9	0.504268
51	0.50307
51.1	0.501877
51.2	0.50068
51.3	0.49948
51.4	0.498279
51.5	0.497078
51.6	0.495874
51.7	0.494673
51.8	0.493474
51.9	0.492275
52	0.49108
52.1	0.48989
52.2	0.488705
52.3	0.487523
52.4	0.486345
52.5	0.485171
52.6	0.483997
52.7	0.482828
52.8	0.481663
52.9	0.480502
53	0.479347
53.1	0.478192
53.2	0.477035
53.3	0.475877
53.4	0.474718
53.5	0.47356
53.6	0.472404
53.7	0.471247
53.8	0.470092
53.9	0.468937
54	0.467784
54.1	0.466634
54.2	0.465489
54.3	0.464349
54.4	0.463211
54.5	0.462075
54.6	0.460944
54.7	0.459825
54.8	0.458711
54.9	0.457604
55	0.456498
55.1	0.455398
55.2	0.454302
55.3	0.453212
55.4	0.452128
55.5	0.451051
55.6	0.449982
55.7	0.448914
55.8	0.447845
55.9	0.446778
56	0.445713
56.1	0.444647
56.2	0.443583
56.3	0.442526
56.4	0.441474
56.5	0.440428
56.6	0.439385
56.7	0.438346
56.8	0.437317
56.9	0.436302
57	0.435294
57.1	0.434295
57.2	0.433298
57.3	0.432305
57.4	0.431318
57.5	0.430338
57.6	0.42936
57.7	0.428383
57.8	0.427407
57.9	0.426436
58	0.425471
58.1	0.424512
58.2	0.423561
58.3	0.422614
58.4	0.421664
58.5	0.420717
58.6	0.419772
58.7	0.418827
58.8	0.41788
58.9	0.416936
59	0.415995
59.1	0.415055
59.2	0.414111
59.3	0.413165
59.4	0.412225
59.5	0.411288
59.6	0.410355
59.7	0.409422
59.8	0.408487
59.9	0.407556
60	0.406628
60.1	0.405702
60.2	0.404782
60.3	0.403864
60.4	0.402946
60.5	0.402033
60.6	0.401124
60.7	0.400214
60.8	0.399304
60.9	0.398395
61	0.397488
61.1	0.396585
61.2	0.395685
61.3	0.394788
61.4	0.393891
61.5	0.393005
61.6	0.392128
61.7	0.391261
61.8	0.390395
61.9	0.389534
62	0.388678
62.1	0.387824
62.2	0.38697
62.3	0.386115
62.4	0.385261
62.5	0.384407
62.6	0.383562
62.7	0.382724
62.8	0.381891
62.9	0.381058
63	0.380225
63.1	0.379395
63.2	0.378566
63.3	0.377739
63.4	0.376912
63.5	0.376079
63.6	0.375242
63.7	0.374404
63.8	0.373566
63.9	0.372725
64	0.371882
64.1	0.371038
64.2	0.370193
64.3	0.369347
64.4	0.368503
64.5	0.367663
64.6	0.36683
64.7	0.366002
64.8	0.365168
64.9	0.364332
65	0.363491
65.1	0.362652
65.2	0.361817
65.3	0.360985
65.4	0.360156
65.5	0.359327
65.6	0.3585
65.7	0.357674
65.8	0.356846
65.9	0.356019
66	0.355194
66.1	0.354374
66.2	0.353559
66.3	0.352749
66.4	0.351942
66.5	0.351134
66.6	0.35033
66.7	0.349528
66.8	0.348725
66.9	0.347927
67	0.347132
67.1	0.346335
67.2	0.345533
67.3	0.344725
67.4	0.343919
67.5	0.343114
67.6	0.342314
67.7	0.341522
67.8	0.340736
67.9	0.339949
68	0.339163
68.1	0.338376
68.2	0.337593
68.3	0.336809
68.4	0.33603
68.5	0.335251
68.6	0.334474
68.7	0.333697
68.8	0.33292
68.9	0.332147
69	0.331378
69.1	0.330612
69.2	0.329847
69.3	0.329088
69.4	0.328333
69.5	0.32758
69.6	0.326826
69.7	0.32607
69.8	0.325313
69.9	0.324558
70	0.323806
70.1	0.323055
70.2	0.322306
70.3	0.321557
70.4	0.320806
70.5	0.320057
70.6	0.319313
70.7	0.318578
70.8	0.317853
70.9	0.317131
71	0.316415
71.1	0.315697
71.2	0.314981
71.3	0.314266
71.4	0.31355
71.5	0.312834
71.6	0.312122
71.7	0.311415
71.8	0.310709
71.9	0.309995
72	0.309278
72.1	0.308562
72.2	0.307843
72.3	0.307129
72.4	0.306419
72.5	0.305712
72.6	0.305005
72.7	0.304298
72.8	0.303586
72.9	0.302871
73	0.302151
73.1	0.301433
73.2	0.30071
73.3	0.299985
73.4	0.29926
73.5	0.298534
73.6	0.297813
73.7	0.297099
73.8	0.296389
73.9	0.295681
74	0.294968
74.1	0.294254
74.2	0.293541
74.3	0.292827
74.4	0.292115
74.5	0.291408
74.6	0.290703
74.7	0.29
74.8	0.289298
74.9	0.288601
75	0.287911
75.1	0.287223
75.2	0.286531
75.3	0.285837
75.4	0.285151
75.5	0.284468
75.6	0.283791
75.7	0.283115
75.8	0.282443
75.9	0.281772
76	0.281102
76.1	0.280438
76.2	0.279777
76.3	0.279118
76.4	0.278463
76.5	0.277813
76.6	0.277168
76.7	0.276526
76.8	0.27589
76.9	0.275257
77	0.274628
77.1	0.274005
77.2	0.273389
77.3	0.272776
77.4	0.272163
77.5	0.271552
77.6	0.270948
77.7	0.270344
77.8	0.269746
77.9	0.269151
78	0.268552
78.1	0.267947
78.2	0.267348
78.3	0.266756
78.4	0.26617
78.5	0.265585
78.6	0.265001
78.7	0.264425
78.8	0.263859
78.9	0.263298
79	0.262737
79.1	0.262178
79.2	0.261627
79.3	0.261077
79.4	0.260529
79.5	0.259981
79.6	0.259434
79.7	0.258889
79.8	0.258348
79.9	0.257814
80	0.257284
80.1	0.256757
80.2	0.25623
80.3	0.255702
80.4	0.255176
80.5	0.254646
80.6	0.254117
80.7	0.253592
80.8	0.253067
80.9	0.252537
81	0.252
81.1	0.251459
81.2	0.250919
81.3	0.250375
81.4	0.249828
81.5	0.249275
81.6	0.248723
81.7	0.24817
81.8	0.247617
81.9	0.247065
82	0.246512
82.1	0.245955
82.2	0.245393
82.3	0.244827
82.4	0.244257
82.5	0.243687
82.6	0.243119
82.7	0.242556
82.8	0.241995
82.9	0.241434
83	0.240881
83.1	0.240333
83.2	0.23979
83.3	0.239246
83.4	0.238706
83.5	0.238173
83.6	0.237644
83.7	0.237115
83.8	0.236587
83.9	0.236062
84	0.235539
84.1	0.235017
84.2	0.234499
84.3	0.233984
84.4	0.233467
84.5	0.232951
84.6	0.232435
84.7	0.231921
84.8	0.231406
84.9	0.230888
85	0.230373
85.1	0.22986
85.2	0.229351
85.3	0.228842
85.4	0.228328
85.5	0.227818
85.6	0.22731
85.7	0.226811
85.8	0.226314
85.9	0.225816
86	0.225323
86.1	0.224834
86.2	0.22435
86.3	0.223867
86.4	0.223383
86.5	0.222898
86.6	0.222412
86.7	0.221919
86.8	0.221427
86.9	0.220933
87	0.220437
87.1	0.219944
87.2	0.219451
87.3	0.218958
87.4	0.218461
87.5	0.217969
87.6	0.217482
87.7	0.217
87.8	0.216524
87.9	0.216049
88	0.215577
88.1	0.215109
88.2	0.214641
88.3	0.214175
88.4	0.213717
88.5	0.213259
88.6	0.212802
88.7	0.212346
88.8	0.211893
88.9	0.211441
89	0.210986
89.1	0.21053
89.2	0.210069
89.3	0.209604
89.4	0.20914
89.5	0.208674
89.6	0.208205
89.7	0.207737
89.8	0.207272
89.9	0.206809
90	0.206353
90.1	0.205904
90.2	0.205454
90.3	0.205
90.4	0.204547
90.5	0.204094
90.6	0.203644
90.7	0.2032
90.8	0.20276
90.9	0.202327
91	0.201901
91.1	0.201481
91.2	0.201062
91.3	0.200641
91.4	0.200223
91.5	0.199803
91.6	0.199379
91.7	0.198954
91.8	0.198532
91.9	0.198108
92	0.197689
92.1	0.197271
92.2	0.196855
92.3	0.19644
92.4	0.196032
92.5	0.195631
92.6	0.195235
92.7	0.194843
92.8	0.194454
92.9	0.194071
93	0.193691
93.1	0.193314
93.2	0.192939
93.3	0.192563
93.4	0.192187
93.5	0.191815
93.6	0.191441
93.7	0.191066
93.8	0.190694
93.9	0.190322
94	0.189953
94.1	0.189589
94.2	0.189219
94.3	0.188849
94.4	0.188475
94.5	0.188104
94.6	0.18774
94.7	0.18738
94.8	0.187017
94.9	0.186655
95	0.186291
95.1	0.185929
95.2	0.185568
95.3	0.185209
95.4	0.18485
95.5	0.18449
95.6	0.18413
95.7	0.183771
95.8	0.183415
95.9	0.183062
96	0.182711
96.1	0.182361
96.2	0.182015
96.3	0.181667
96.4	0.181315
96.5	0.180954
96.6	0.18059
96.7	0.180226
96.8	0.179867
96.9	0.179513
97	0.179163
97.1	0.178816
97.2	0.178468
97.3	0.178119
97.4	0.177769
97.5	0.177419
97.6	0.177067
97.7	0.176716
97.8	0.176363
97.9	0.176009
98	0.175653
98.1	0.175301
98.2	0.174944
98.3	0.174591
98.4	0.174235
98.5	0.17388
98.6	0.173524
98.7	0.173167
98.8	0.17281
98.9	0.172452
99	0.172092
99.1	0.171725
99.2	0.171359
99.3	0.170994
99.4	0.170622
99.5	0.170238
99.6	0.169849
99.7	0.169461
99.8	0.169072
99.9	0.168683
100	0.168292
100.1	0.167901
100.2	0.167505
100.3	0.167109
100.4	0.166711
100.5	0.166309
100.6	0.165907
100.7	0.165507
100.8	0.165111
100.9	0.164718
101	0.16433
101.1	0.163941
101.2	0.163552
101.3	0.163165
101.4	0.162781
101.5	0.162399
101.6	0.162021
101.7	0.161645
101.8	0.161276
101.9	0.160911
102	0.160549
102.1	0.16019
102.2	0.159835
102.3	0.159484
102.4	0.159139
102.5	0.158802
102.6	0.158471
102.7	0.158143
102.8	0.157817
102.9	0.157497
103	0.157183
103.1	0.156872
103.2	0.156563
103.3	0.156255
103.4	0.155945
103.5	0.155638
103.6	0.155333
103.7	0.155029
103.8	0.154729
103.9	0.154432
104	0.154136
104.1	0.153846
104.2	0.153558
104.3	0.153275
104.4	0.152993
104.5	0.152712
104.6	0.15243
104.7	0.152151
104.8	0.151871
104.9	0.15159
105	0.151308
105.1	0.151031
105.2	0.150756
105.3	0.150484
105.4	0.150219
105.5	0.149958
105.6	0.149697
105.7	0.149433
105.8	0.149165
105.9	0.148896
106	0.148629
106.1	0.148361
106.2	0.148086
106.3	0.147806
106.4	0.147527
106.5	0.147246
106.6	0.146964
106.7	0.146679
106.8	0.146392
106.9	0.146106
107	0.145818
107.1	0.14553
107.2	0.145242
107.3	0.144954
107.4	0.144663
107.5	0.144373
107.6	0.144087
107.7	0.143797
107.8	0.143506
107.9	0.143216
108	0.142922
108.1	0.142623
108.2	0.142321
108.3	0.142017
108.4	0.141708
108.5	0.141401
108.6	0.141098
108.7	0.140792
108.8	0.140488
108.9	0.140187
109	0.139884
109.1	0.13958
109.2	0.139276
109.3	0.138966
109.4	0.138655
109.5	0.138345
109.6	0.13804
109.7	0.137742
109.8	0.137448
109.9	0.137155
110	0.136863
110.1	0.136573
110.2	0.136283
110.3	0.135998
110.4	0.135719
110.5	0.13545
110.6	0.13518
110.7	0.134911
110.8	0.134646
110.9	0.134383
111	0.13412
111.1	0.133853
111.2	0.133587
111.3	0.133323
111.4	0.133058
111.5	0.132795
111.6	0.132531
111.7	0.132269
111.8	0.132008
111.9	0.131747
112	0.131485
112.1	0.131229
112.2	0.130973
112.3	0.130719
112.4	0.130463
112.5	0.130203
112.6	0.129943
112.7	0.129689
112.8	0.129437
112.9	0.129184
113	0.128929
113.1	0.128674
113.2	0.128421
113.3	0.128169
113.4	0.127919
113.5	0.127672
113.6	0.127428
113.7	0.127188
113.8	0.126947
113.9	0.126705
114	0.126461
114.1	0.126209
114.2	0.125956
114.3	0.125699
114.4	0.125445
114.5	0.125189
114.6	0.124934
114.7	0.124681
114.8	0.124427
114.9	0.124171
115	0.123914
115.1	0.123657
115.2	0.123401
115.3	0.123151
115.4	0.122907
115.5	0.12267
115.6	0.122444
115.7	0.122223
115.8	0.122001
115.9	0.121777
116	0.121548
116.1	0.12132
116.2	0.121096
116.3	0.120876
116.4	0.12066
116.5	0.12045
116.6	0.120243
116.7	0.120035
116.8	0.119826
116.9	0.119623
117	0.119422
117.1	0.119218
117.2	0.119011
117.3	0.118795
117.4	0.118578
117.5	0.118364
117.6	0.118156
117.7	0.117951
117.8	0.11774
117.9	0.117527
118	0.117316
118.1	0.117105
118.2	0.116898
118.3	0.116692
118.4	0.116487
118.5	0.116287
118.6	0.116091
118.7	0.115897
118.8	0.115705
118.9	0.115516
119	0.115327
119.1	0.115141
119.2	0.114958
119.3	0.114772
119.4	0.114583
119.5	0.114394
119.6	0.114205
119.7	0.11402
119.8	0.113842
119.9	0.113664
120	0.113486
120.1	0.113309
120.2	0.113134
120.3	0.112959
120.4	0.112778
120.5	0.112591
120.6	0.112402
120.7	0.112211
120.8	0.112012
120.9	0.111809
121	0.111606
121.1	0.111408
121.2	0.111211
121.3	0.111018
121.4	0.110829
121.5	0.110643
121.6	0.110456
121.7	0.110267
121.8	0.110082
121.9	0.109901
122	0.109722
122.1	0.109543
122.2	0.109365
122.3	0.109187
122.4	0.109012
122.5	0.108838
122.6	0.108666
122.7	0.108504
122.8	0.108348
122.9	0.108193
123	0.108037
123.1	0.107881
123.2	0.107727
123.3	0.107575
123.4	0.107426
123.5	0.10728
123.6	0.107134
123.7	0.10699
123.8	0.106847
123.9	0.106708
124	0.106572
124.1	0.10644
124.2	0.106307
124.3	0.106167
124.4	0.106023
124.5	0.105874
124.6	0.105726
124.7	0.105583
124.8	0.105443
124.9	0.105305
125	0.105165
125.1	0.105022
125.2	0.10488
125.3	0.104742
125.4	0.104603
125.5	0.104466
125.6	0.104333
125.7	0.104202
125.8	0.104075
125.9	0.10394
126	0.103801
126.1	0.103663
126.2	0.103526
126.3	0.103391
126.4	0.103257
126.5	0.10312
126.6	0.102982
126.7	0.102841
126.8	0.102701
126.9	0.102558
127	0.102414
127.1	0.10227
127.2	0.102126
127.3	0.101978
127.4	0.101822
127.5	0.101664
127.6	0.10151
127.7	0.101359
127.8	0.101206
127.9	0.10105
128	0.100898
128.1	0.100755
128.2	0.100619
128.3	0.100481
128.4	0.100343
128.5	0.100201
128.6	0.100059
128.7	0.0999166
128.8	0.0997757
128.9	0.0996351
129	0.0994948
129.1	0.0993541
129.2	0.0992153
129.3	0.0990798
129.4	0.0989474
129.5	0.0988152
129.6	0.0986832
129.7	0.0985546
129.8	0.0984267
129.9	0.0982957
130	0.0981578
130.1	0.0980159
130.2	0.0978732
130.3	0.0977268
130.4	0.0975784
130.5	0.097426
130.6	0.0972739
130.7	0.09712
130.8	0.0969675
130.9	0.0968115
131	0.0966484
131.1	0.0964825
131.2	0.0963213
131.3	0.0961639
131.4	0.0960097
131.5	0.0958593
131.6	0.0957117
131.7	0.0955713
131.8	0.0954375
131.9	0.095305
132	0.0951669
132.1	0.0950242
132.2	0.0948825
132.3	0.0947405
132.4	0.0945941
132.5	0.0944449
132.6	0.0942925
132.7	0.0941397
132.8	0.0939832
132.9	0.0938249
133	0.0936681
133.1	0.0935068
133.2	0.0933411
133.3	0.0931711
133.4	0.0929904
133.5	0.0928032
133.6	0.0926176
133.7	0.0924265
133.8	0.0922313
133.9	0.0920351
134	0.091846
134.1	0.091665
134.2	0.0914886
134.3	0.0913152
134.4	0.0911409
134.5	0.0909642
134.6	0.0907891
134.7	0.0906186
134.8	0.090454
134.9	0.090292
135	0.0901319
135.1	0.0899697
135.2	0.0898045
135.3	0.0896365
135.4	0.0894648
135.5	0.0892905
135.6	0.0891131
135.7	0.0889294
135.8	0.0887452
135.9	0.0885655
136	0.0883832
136.1	0.0881983
136.2	0.0880126
136.3	0.0878249
136.4	0.087637
136.5	0.0874485
136.6	0.0872595
136.7	0.0870708
136.8	0.0868822
136.9	0.0866922
137	0.0865
137.1	0.0863083
137.2	0.086124
137.3	0.0859469
137.4	0.0857724
137.5	0.0855999
137.6	0.0854288
137.7	0.085257
137.8	0.08508
137.9	0.0849037
138	0.0847288
138.1	0.0845561
138.2	0.0843785
138.3	0.0842008
138.4	0.0840218
138.5	0.0838447
138.6	0.0836715
138.7	0.0835021
138.8	0.0833304
138.9	0.0831611
139	0.0829929
139.1	0.082825
139.2	0.0826606
139.3	0.0825
139.4	0.0823403
139.5	0.0821814
139.6	0.0820203
139.7	0.0818609
139.8	0.0817028
139.9	0.0815371
140	0.0813713
140.1	0.0812073
140.2	0.0810405
140.3	0.0808686
140.4	0.0806958
140.5	0.0805218
140.6	0.0803442
140.7	0.0801579
140.8	0.0799669
140.9	0.0797774
141	0.079587
141.1	0.0794017
141.2	0.0792199
141.3	0.0790419
141.4	0.0788629
141.5	0.0786802
141.6	0.0784977
141.7	0.0783192
141.8	0.0781401
141.9	0.0779572
142	0.0777741
142.1	0.0775939
142.2	0.0774133
142.3	0.077232
142.4	0.077051
142.5	0.076871
142.6	0.0766899
142.7	0.0765155
142.8	0.0763469
142.9	0.0761854
143	0.0760277
143.1	0.0758723
143.2	0.0757203
143.3	0.0755722
143.4	0.0754263
143.5	0.0752843
143.6	0.0751445
143.7	0.0750056
143.8	0.0748689
