LagTime	Correlation

0	1.97287
0.1	1.96786
0.2	1.96037
0.3	1.95231
0.4	1.94416
0.5	1.93604
0.6	1.92797
0.7	1.91997
0.8	1.91203
0.9	1.90415
1	1.89633
1.1	1.88858
1.2	1.88089
1.3	1.87326
1.4	1.86568
1.5	1.85817
1.6	1.85071
1.7	1.84331
1.8	1.83596
1.9	1.82866
2	1.82142
2.1	1.81423
2.2	1.80709
2.3	1.8
2.4	1.79296
2.5	1.78598
2.6	1.77906
2.7	1.77218
2.8	1.76536
2.9	1.75858
3	1.75185
3.1	1.74517
3.2	1.73853
3.3	1.73193
3.4	1.72538
3.5	1.71887
3.6	1.71241
3.7	1.70599
3.8	1.69962
3.9	1.6933
4	1.68701
4.1	1.68078
4.2	1.67459
4.3	1.66844
4.4	1.66233
4.5	1.65626
4.6	1.65021
4.7	1.64421
4.8	1.63824
4.9	1.63231
5	1.62642
5.1	1.62056
5.2	1.61474
5.3	1.60897
5.4	1.60324
5.5	1.59755
5.6	1.5919
5.7	1.58629
5.8	1.58071
5.9	1.57516
6	1.56964
6.1	1.56417
6.2	1.55872
6.3	1.55332
6.4	1.54795
6.5	1.54261
6.6	1.53731
6.7	1.53204
6.8	1.52681
6.9	1.5216
7	1.51643
7.1	1.51128
7.2	1.50617
7.3	1.50109
7.4	1.49604
7.5	1.49102
7.6	1.48603
7.7	1.48108
7.8	1.47616
7.9	1.47128
8	1.46643
8.1	1.46161
8.2	1.45681
8.3	1.45205
8.4	1.44732
8.5	1.44261
8.6	1.43792
8.7	1.43325
8.8	1.42861
8.9	1.42399
9	1.41941
9.1	1.41484
9.2	1.4103
9.3	1.40578
9.4	1.40129
9.5	1.39683
9.6	1.39239
9.7	1.38799
9.8	1.38362
9.9	1.37927
10	1.37495
10.1	1.37066
10.2	1.3664
10.3	1.36216
10.4	1.35794
10.5	1.35374
10.6	1.34957
10.7	1.34543
10.8	1.34131
10.9	1.33721
11	1.33313
11.1	1.32908
11.2	1.32505
11.3	1.32103
11.4	1.31704
11.5	1.31306
11.6	1.3091
11.7	1.30516
11.8	1.30124
11.9	1.29733
12	1.29344
12.1	1.28958
12.2	1.28573
12.3	1.2819
12.4	1.27809
12.5	1.27429
12.6	1.27051
12.7	1.26675
12.8	1.26301
12.9	1.25928
13	1.25558
13.1	1.25191
13.2	1.24825
13.3	1.24462
13.4	1.24101
13.5	1.23741
13.6	1.23383
13.7	1.23027
13.8	1.22673
13.9	1.22321
14	1.2197
14.1	1.21621
14.2	1.21273
14.3	1.20928
14.4	1.20585
14.5	1.20244
14.6	1.19905
14.7	1.19568
14.8	1.19233
14.9	1.18901
15	1.18571
15.1	1.18243
15.2	1.17917
15.3	1.17593
15.4	1.1727
15.5	1.16949
15.6	1.16628
15.7	1.16309
15.8	1.15992
15.9	1.15675
16	1.1536
16.1	1.15045
16.2	1.14732
16.3	1.14419
16.4	1.14109
16.5	1.138
16.6	1.13493
16.7	1.13187
16.8	1.12883
16.9	1.1258
17	1.12278
17.1	1.11977
17.2	1.11678
17.3	1.11379
17.4	1.11082
17.5	1.10785
17.6	1.1049
17.7	1.10196
17.8	1.09903
17.9	1.09611
18	1.09321
18.1	1.09031
18.2	1.08743
18.3	1.08455
18.4	1.08168
18.5	1.07882
18.6	1.07597
18.7	1.07314
18.8	1.07032
18.9	1.06752
19	1.06472
19.1	1.06193
19.2	1.05914
19.3	1.05637
19.4	1.0536
19.5	1.05084
19.6	1.04809
19.7	1.04535
19.8	1.04262
19.9	1.03991
20	1.03721
20.1	1.03452
20.2	1.03184
20.3	1.02917
20.4	1.02651
20.5	1.02386
20.6	1.02123
20.7	1.01861
20.8	1.016
20.9	1.0134
21	1.01081
21.1	1.00824
21.2	1.00567
21.3	1.00312
21.4	1.00059
21.5	0.998063
21.6	0.995546
21.7	0.993037
21.8	0.990535
21.9	0.988039
22	0.985549
22.1	0.983068
22.2	0.980601
22.3	0.978146
22.4	0.975698
22.5	0.973258
22.6	0.970823
22.7	0.968395
22.8	0.965976
22.9	0.963564
23	0.961164
23.1	0.958776
23.2	0.956398
23.3	0.954027
23.4	0.951662
23.5	0.949298
23.6	0.946936
23.7	0.944579
23.8	0.942231
23.9	0.939888
24	0.937548
24.1	0.935213
24.2	0.932889
24.3	0.93057
24.4	0.928259
24.5	0.925947
24.6	0.923644
24.7	0.921348
24.8	0.91906
24.9	0.916782
25	0.914517
25.1	0.912264
25.2	0.910015
25.3	0.907772
25.4	0.905534
25.5	0.903301
25.6	0.901076
25.7	0.898857
25.8	0.896647
25.9	0.894444
26	0.892249
26.1	0.890065
26.2	0.887889
26.3	0.885723
26.4	0.883565
26.5	0.881407
26.6	0.879253
26.7	0.877104
26.8	0.874959
26.9	0.872822
27	0.870692
27.1	0.86857
27.2	0.866456
27.3	0.864353
27.4	0.862258
27.5	0.860168
27.6	0.858084
27.7	0.856005
27.8	0.853929
27.9	0.85186
28	0.849799
28.1	0.847743
28.2	0.845691
28.3	0.843642
28.4	0.841596
28.5	0.839556
28.6	0.837521
28.7	0.835487
28.8	0.833454
28.9	0.831428
29	0.829405
29.1	0.827389
29.2	0.825381
29.3	0.823377
29.4	0.821382
29.5	0.819396
29.6	0.81742
29.7	0.815452
29.8	0.81349
29.9	0.811534
30	0.809588
30.1	0.807649
30.2	0.805713
30.3	0.803786
30.4	0.801866
30.5	0.799945
30.6	0.798024
30.7	0.796104
30.8	0.794186
30.9	0.79227
31	0.790355
31.1	0.788443
31.2	0.786535
31.3	0.784636
31.4	0.782745
31.5	0.780861
31.6	0.778982
31.7	0.777108
31.8	0.775243
31.9	0.773388
32	0.771543
32.1	0.769707
32.2	0.767878
32.3	0.766051
32.4	0.764227
32.5	0.76241
32.6	0.760593
32.7	0.758779
32.8	0.756967
32.9	0.755155
33	0.753345
33.1	0.751535
33.2	0.749726
33.3	0.747922
33.4	0.746127
33.5	0.744341
33.6	0.742567
33.7	0.740806
33.8	0.739057
33.9	0.737313
34	0.735571
34.1	0.733836
34.2	0.732106
34.3	0.730376
34.4	0.728656
34.5	0.726942
34.6	0.725232
34.7	0.723521
34.8	0.721814
34.9	0.720111
35	0.718416
35.1	0.716725
35.2	0.715039
35.3	0.713356
35.4	0.711672
35.5	0.709992
35.6	0.708322
35.7	0.706656
35.8	0.704997
35.9	0.703339
36	0.701683
36.1	0.700029
36.2	0.698377
36.3	0.696726
36.4	0.695075
36.5	0.69343
36.6	0.691793
36.7	0.690163
36.8	0.688538
36.9	0.686919
37	0.685304
37.1	0.683695
37.2	0.682088
37.3	0.68048
37.4	0.678878
37.5	0.677279
37.6	0.675689
37.7	0.674106
37.8	0.672527
37.9	0.670958
38	0.669395
38.1	0.667836
38.2	0.666283
38.3	0.664733
38.4	0.663188
38.5	0.661649
38.6	0.660115
38.7	0.658585
38.8	0.657059
38.9	0.655539
39	0.654021
39.1	0.652507
39.2	0.650998
39.3	0.649496
39.4	0.647998
39.5	0.646507
39.6	0.645022
39.7	0.643545
39.8	0.642072
39.9	0.640602
40	0.639138
40.1	0.637682
40.2	0.636236
40.3	0.634799
40.4	0.633367
40.5	0.631941
40.6	0.630518
40.7	0.629101
40.8	0.627686
40.9	0.626274
41	0.624858
41.1	0.62344
41.2	0.622024
41.3	0.620611
41.4	0.619202
41.5	0.617796
41.6	0.616388
41.7	0.614989
41.8	0.613594
41.9	0.612203
42	0.610807
42.1	0.609409
42.2	0.608011
42.3	0.606616
42.4	0.605222
42.5	0.603834
42.6	0.60245
42.7	0.60107
42.8	0.599695
42.9	0.598325
43	0.596958
43.1	0.595595
43.2	0.594233
43.3	0.592874
43.4	0.591521
43.5	0.590174
43.6	0.588833
43.7	0.587499
43.8	0.586167
43.9	0.584838
44	0.583512
44.1	0.582188
44.2	0.580867
44.3	0.579551
44.4	0.57824
44.5	0.576935
44.6	0.575638
44.7	0.574341
44.8	0.573053
44.9	0.571769
45	0.570491
45.1	0.569219
45.2	0.567952
45.3	0.566689
45.4	0.565426
45.5	0.564166
45.6	0.562907
45.7	0.561652
45.8	0.560399
45.9	0.559153
46	0.557916
46.1	0.556682
46.2	0.555446
46.3	0.554208
46.4	0.552973
46.5	0.551739
46.6	0.550509
46.7	0.549277
46.8	0.548044
46.9	0.546809
47	0.545576
47.1	0.544345
47.2	0.543119
47.3	0.541898
47.4	0.540684
47.5	0.539476
47.6	0.538273
47.7	0.537075
47.8	0.535879
47.9	0.534688
48	0.5335
48.1	0.532314
48.2	0.531128
48.3	0.529944
48.4	0.528763
48.5	0.527578
48.6	0.526392
48.7	0.525206
48.8	0.524022
48.9	0.522843
49	0.521671
49.1	0.520505
49.2	0.519346
49.3	0.518193
49.4	0.517047
49.5	0.515905
49.6	0.514767
49.7	0.51363
49.8	0.512497
49.9	0.511368
50	0.510238
50.1	0.509113
50.2	0.507987
50.3	0.506866
50.4	0.505749
50.5	0.504629
50.6	0.503512
50.7	0.5024
50.8	0.501294
50.9	0.500188
51	0.499083
51.1	0.497979
51.2	0.496877
51.3	0.495774
51.4	0.494679
51.5	0.493593
51.6	0.492509
51.7	0.491427
51.8	0.490344
51.9	0.489265
52	0.488185
52.1	0.487107
52.2	0.486033
52.3	0.484963
52.4	0.483896
52.5	0.482833
52.6	0.48177
52.7	0.480709
52.8	0.479646
52.9	0.478583
53	0.477521
53.1	0.476459
53.2	0.475398
53.3	0.474336
53.4	0.473276
53.5	0.472221
53.6	0.471165
53.7	0.470109
53.8	0.469052
53.9	0.467997
54	0.466941
54.1	0.465884
54.2	0.464826
54.3	0.46377
54.4	0.462716
54.5	0.461665
54.6	0.460613
54.7	0.459562
54.8	0.458509
54.9	0.457457
55	0.456403
55.1	0.455349
55.2	0.454296
55.3	0.453248
55.4	0.452205
55.5	0.451164
55.6	0.450124
55.7	0.449091
55.8	0.448061
55.9	0.447038
56	0.446012
56.1	0.444983
56.2	0.443952
56.3	0.442921
56.4	0.441895
56.5	0.440876
56.6	0.439862
56.7	0.438855
56.8	0.437846
56.9	0.436836
57	0.435826
57.1	0.434818
57.2	0.433813
57.3	0.432814
57.4	0.431824
57.5	0.430841
57.6	0.429859
57.7	0.428879
57.8	0.427904
57.9	0.426933
58	0.425967
58.1	0.425006
58.2	0.424046
58.3	0.423083
58.4	0.42212
58.5	0.421157
58.6	0.420196
58.7	0.419238
58.8	0.418281
58.9	0.417321
59	0.416359
59.1	0.415395
59.2	0.414435
59.3	0.413475
59.4	0.412516
59.5	0.411562
59.6	0.410606
59.7	0.409652
59.8	0.408699
59.9	0.407745
60	0.406793
60.1	0.405845
60.2	0.404904
60.3	0.403971
60.4	0.403044
60.5	0.402122
60.6	0.401202
60.7	0.400286
60.8	0.399377
60.9	0.398469
61	0.397554
61.1	0.396638
61.2	0.395725
61.3	0.394815
61.4	0.393908
61.5	0.393
61.6	0.392088
61.7	0.391173
61.8	0.390263
61.9	0.389355
62	0.388449
62.1	0.387548
62.2	0.386652
62.3	0.385763
62.4	0.384878
62.5	0.383992
62.6	0.383103
62.7	0.382209
62.8	0.381317
62.9	0.38043
63	0.379548
63.1	0.378667
63.2	0.37779
63.3	0.376919
63.4	0.376049
63.5	0.375179
63.6	0.374306
63.7	0.373426
63.8	0.372547
63.9	0.371674
64	0.370803
64.1	0.369939
64.2	0.369085
64.3	0.368235
64.4	0.36739
64.5	0.366549
64.6	0.365708
64.7	0.364871
64.8	0.364035
64.9	0.363199
65	0.362362
65.1	0.361523
65.2	0.360681
65.3	0.359841
65.4	0.359002
65.5	0.358171
65.6	0.357345
65.7	0.356523
65.8	0.355702
65.9	0.354884
66	0.354071
66.1	0.353265
66.2	0.352465
66.3	0.351667
66.4	0.350873
66.5	0.350082
66.6	0.34929
66.7	0.348499
66.8	0.347712
66.9	0.346924
67	0.346135
67.1	0.345353
67.2	0.344574
67.3	0.343799
67.4	0.34303
67.5	0.342265
67.6	0.341502
67.7	0.340738
67.8	0.33998
67.9	0.339226
68	0.338476
68.1	0.337726
68.2	0.336979
68.3	0.336234
68.4	0.335493
68.5	0.334754
68.6	0.334018
68.7	0.333284
68.8	0.332553
68.9	0.331823
69	0.3311
69.1	0.330382
69.2	0.329669
69.3	0.328961
69.4	0.328257
69.5	0.327556
69.6	0.326854
69.7	0.326155
69.8	0.325464
69.9	0.324776
70	0.324092
70.1	0.323416
70.2	0.322745
70.3	0.322071
70.4	0.321392
70.5	0.320718
70.6	0.320051
70.7	0.319394
70.8	0.318739
70.9	0.318087
71	0.31744
71.1	0.316797
71.2	0.316153
71.3	0.315504
71.4	0.314848
71.5	0.314194
71.6	0.313542
71.7	0.312889
71.8	0.312235
71.9	0.311587
72	0.310944
72.1	0.310305
72.2	0.309664
72.3	0.309021
72.4	0.308379
72.5	0.30774
72.6	0.307098
72.7	0.306452
72.8	0.305806
72.9	0.305161
73	0.304517
73.1	0.303871
73.2	0.303228
73.3	0.302589
73.4	0.301953
73.5	0.30132
73.6	0.300687
73.7	0.300053
73.8	0.29942
73.9	0.298791
74	0.298161
74.1	0.297536
74.2	0.296915
74.3	0.296293
74.4	0.295668
74.5	0.295047
74.6	0.294428
74.7	0.293815
74.8	0.293208
74.9	0.292607
75	0.29201
75.1	0.291415
75.2	0.290824
75.3	0.290233
75.4	0.289646
75.5	0.289057
75.6	0.288468
75.7	0.287877
75.8	0.287276
75.9	0.286669
76	0.286057
76.1	0.285446
76.2	0.284836
76.3	0.28422
76.4	0.283605
76.5	0.282989
76.6	0.282376
76.7	0.281767
76.8	0.281161
76.9	0.280561
77	0.279966
77.1	0.279378
77.2	0.278793
77.3	0.278208
77.4	0.277624
77.5	0.277039
77.6	0.27646
77.7	0.275882
77.8	0.275309
77.9	0.274741
78	0.274175
78.1	0.273611
78.2	0.273051
78.3	0.272493
78.4	0.27194
78.5	0.271394
78.6	0.27085
78.7	0.270305
78.8	0.269762
78.9	0.26922
79	0.268677
79.1	0.268141
79.2	0.267607
79.3	0.267071
79.4	0.266529
79.5	0.265982
79.6	0.265432
79.7	0.264884
79.8	0.264339
79.9	0.263796
80	0.26326
80.1	0.262721
80.2	0.262184
80.3	0.261648
80.4	0.261113
80.5	0.260578
80.6	0.260038
80.7	0.259495
80.8	0.258953
80.9	0.258413
81	0.257877
81.1	0.257344
81.2	0.25681
81.3	0.256278
81.4	0.255743
81.5	0.255209
81.6	0.254673
81.7	0.254137
81.8	0.2536
81.9	0.253061
82	0.252527
82.1	0.251996
82.2	0.251467
82.3	0.25093
82.4	0.250391
82.5	0.249855
82.6	0.249319
82.7	0.248782
82.8	0.248241
82.9	0.247692
83	0.247138
83.1	0.246588
83.2	0.246036
83.3	0.245486
83.4	0.244936
83.5	0.244392
83.6	0.24385
83.7	0.24331
83.8	0.242773
83.9	0.242237
84	0.241706
84.1	0.241181
84.2	0.240656
84.3	0.240136
84.4	0.23962
84.5	0.239101
84.6	0.238583
84.7	0.238063
84.8	0.237544
84.9	0.237029
85	0.236517
85.1	0.236008
85.2	0.235504
85.3	0.235002
85.4	0.234499
85.5	0.233999
85.6	0.233511
85.7	0.233028
85.8	0.232544
85.9	0.232055
86	0.231565
86.1	0.231076
86.2	0.230589
86.3	0.230107
86.4	0.22963
86.5	0.229156
86.6	0.228687
86.7	0.228221
86.8	0.227757
86.9	0.227296
87	0.226832
87.1	0.226368
87.2	0.225904
87.3	0.225443
87.4	0.224982
87.5	0.224523
87.6	0.22406
87.7	0.223591
87.8	0.223114
87.9	0.222632
88	0.222152
88.1	0.221674
88.2	0.2212
88.3	0.220727
88.4	0.220251
88.5	0.219772
88.6	0.219291
88.7	0.218811
88.8	0.218333
88.9	0.217864
89	0.217398
89.1	0.216935
89.2	0.216475
89.3	0.216018
89.4	0.215563
89.5	0.215104
89.6	0.21464
89.7	0.214175
89.8	0.213709
89.9	0.213247
90	0.212791
90.1	0.212329
90.2	0.211869
90.3	0.211411
90.4	0.210956
90.5	0.2105
90.6	0.210042
90.7	0.209586
90.8	0.209138
90.9	0.208698
91	0.208258
91.1	0.207819
91.2	0.207379
91.3	0.20694
91.4	0.206501
91.5	0.206065
91.6	0.205634
91.7	0.205207
91.8	0.204783
91.9	0.204363
92	0.203942
92.1	0.203524
92.2	0.203104
92.3	0.20268
92.4	0.202249
92.5	0.201814
92.6	0.201373
92.7	0.200932
92.8	0.200496
92.9	0.200062
93	0.199628
93.1	0.199193
93.2	0.198753
93.3	0.19831
93.4	0.197864
93.5	0.197415
93.6	0.196962
93.7	0.196509
93.8	0.196058
93.9	0.19561
94	0.195164
94.1	0.194714
94.2	0.194263
94.3	0.193817
94.4	0.193371
94.5	0.192925
94.6	0.192485
94.7	0.192046
94.8	0.19161
94.9	0.191175
95	0.190744
95.1	0.190317
95.2	0.189893
95.3	0.189471
95.4	0.189052
95.5	0.188639
95.6	0.188233
95.7	0.187822
95.8	0.187407
95.9	0.186993
96	0.18658
96.1	0.186168
96.2	0.185759
96.3	0.185348
96.4	0.184935
96.5	0.184523
96.6	0.18411
96.7	0.183703
96.8	0.1833
96.9	0.182902
97	0.182508
97.1	0.182112
97.2	0.181717
97.3	0.181321
97.4	0.18093
97.5	0.180537
97.6	0.180147
97.7	0.179761
97.8	0.179376
97.9	0.178995
98	0.17862
98.1	0.178253
98.2	0.177888
98.3	0.177523
98.4	0.177151
98.5	0.176777
98.6	0.176398
98.7	0.17602
98.8	0.175644
98.9	0.175273
99	0.174908
99.1	0.174546
99.2	0.174188
99.3	0.173833
99.4	0.173478
99.5	0.173124
99.6	0.172774
99.7	0.172429
99.8	0.172089
99.9	0.171752
100	0.171416
100.1	0.171083
100.2	0.17075
100.3	0.170418
100.4	0.170085
100.5	0.169752
100.6	0.169424
100.7	0.169098
100.8	0.168774
100.9	0.168455
101	0.168141
101.1	0.167828
101.2	0.167515
101.3	0.167198
101.4	0.166885
101.5	0.166569
101.6	0.166252
101.7	0.165933
101.8	0.165611
101.9	0.165287
102	0.164966
102.1	0.164639
102.2	0.16431
102.3	0.16398
102.4	0.163652
102.5	0.163324
102.6	0.162991
102.7	0.162655
102.8	0.162321
102.9	0.161992
103	0.161659
103.1	0.161318
103.2	0.160978
103.3	0.160641
103.4	0.160305
103.5	0.15997
103.6	0.159636
103.7	0.159297
103.8	0.158957
103.9	0.158618
104	0.158275
104.1	0.157935
104.2	0.157598
104.3	0.157256
104.4	0.156918
104.5	0.156583
104.6	0.156249
104.7	0.155916
104.8	0.155587
104.9	0.155261
105	0.154932
105.1	0.154604
105.2	0.154276
105.3	0.153947
105.4	0.153615
105.5	0.153278
105.6	0.15294
105.7	0.152601
105.8	0.152266
105.9	0.151934
106	0.151604
106.1	0.151276
106.2	0.150948
106.3	0.150617
106.4	0.150288
106.5	0.149966
106.6	0.149643
106.7	0.149325
106.8	0.149007
106.9	0.14869
107	0.148373
107.1	0.148062
107.2	0.147758
107.3	0.147459
107.4	0.147158
107.5	0.146861
107.6	0.146562
107.7	0.146259
107.8	0.145953
107.9	0.145649
108	0.145346
108.1	0.14504
108.2	0.144727
108.3	0.144415
108.4	0.144098
108.5	0.143781
108.6	0.143464
108.7	0.143149
108.8	0.142837
108.9	0.142524
109	0.142214
109.1	0.141908
109.2	0.1416
109.3	0.141287
109.4	0.140976
109.5	0.140667
109.6	0.14036
109.7	0.140052
109.8	0.139743
109.9	0.139429
110	0.13911
110.1	0.138786
110.2	0.138464
110.3	0.13815
110.4	0.137841
110.5	0.13754
110.6	0.137244
110.7	0.136952
110.8	0.136664
110.9	0.136374
111	0.136085
111.1	0.135798
111.2	0.135509
111.3	0.135221
111.4	0.134925
111.5	0.134629
111.6	0.134331
111.7	0.134034
111.8	0.133741
111.9	0.133455
112	0.133173
112.1	0.132896
112.2	0.132622
112.3	0.13235
112.4	0.132075
112.5	0.131802
112.6	0.131528
112.7	0.131249
112.8	0.130968
112.9	0.130684
113	0.130402
113.1	0.130119
113.2	0.129833
113.3	0.129544
113.4	0.129257
113.5	0.128971
113.6	0.128687
113.7	0.128404
113.8	0.128126
113.9	0.127845
114	0.127565
114.1	0.127284
114.2	0.127002
114.3	0.12672
114.4	0.12644
114.5	0.126158
114.6	0.125878
114.7	0.1256
114.8	0.125321
114.9	0.125044
115	0.124767
115.1	0.124495
115.2	0.124231
115.3	0.123967
115.4	0.123703
115.5	0.123443
115.6	0.123187
115.7	0.122928
115.8	0.122672
115.9	0.12242
116	0.122171
116.1	0.121923
116.2	0.121678
116.3	0.121435
116.4	0.121195
116.5	0.120957
116.6	0.120722
116.7	0.120487
116.8	0.120253
116.9	0.120025
117	0.119805
117.1	0.119587
117.2	0.119368
117.3	0.119149
117.4	0.118932
117.5	0.11872
117.6	0.118513
117.7	0.118307
117.8	0.118101
117.9	0.117888
118	0.117675
118.1	0.117467
118.2	0.117255
118.3	0.117044
118.4	0.116841
118.5	0.116636
118.6	0.116431
118.7	0.116225
118.8	0.116018
118.9	0.115813
119	0.115612
119.1	0.115411
119.2	0.115213
119.3	0.115015
119.4	0.114821
119.5	0.114626
119.6	0.114431
119.7	0.114233
119.8	0.114037
119.9	0.113839
120	0.11364
120.1	0.113442
120.2	0.113246
120.3	0.113051
120.4	0.112856
120.5	0.112658
120.6	0.112458
120.7	0.112254
120.8	0.11205
120.9	0.111848
121	0.111654
121.1	0.111463
121.2	0.11127
121.3	0.111078
121.4	0.11088
121.5	0.110684
121.6	0.110488
121.7	0.110294
121.8	0.110098
121.9	0.109898
122	0.109696
122.1	0.109492
122.2	0.109284
122.3	0.109078
122.4	0.108874
122.5	0.10867
122.6	0.108472
122.7	0.108282
122.8	0.108101
122.9	0.107927
123	0.107758
123.1	0.107591
123.2	0.107421
123.3	0.107246
123.4	0.107069
123.5	0.106892
123.6	0.106715
123.7	0.10654
123.8	0.106365
123.9	0.106191
124	0.10602
124.1	0.105849
124.2	0.10568
124.3	0.10551
124.4	0.105336
124.5	0.105163
124.6	0.104991
124.7	0.104813
124.8	0.104633
124.9	0.104451
125	0.104271
125.1	0.104096
125.2	0.103921
125.3	0.103752
125.4	0.103588
125.5	0.103431
125.6	0.103277
125.7	0.103126
125.8	0.102979
125.9	0.102831
126	0.10268
126.1	0.102531
126.2	0.102381
126.3	0.102227
126.4	0.102076
126.5	0.101922
126.6	0.101768
126.7	0.101613
126.8	0.101458
126.9	0.101298
127	0.101132
127.1	0.100966
127.2	0.100802
127.3	0.10064
127.4	0.100479
127.5	0.100323
127.6	0.100164
127.7	0.100004
127.8	0.0998429
127.9	0.0996767
128	0.0995076
128.1	0.0993352
128.2	0.0991658
128.3	0.0990008
128.4	0.0988432
128.5	0.0986891
128.6	0.0985314
128.7	0.0983694
128.8	0.0982061
128.9	0.0980432
129	0.0978814
129.1	0.0977163
129.2	0.0975464
129.3	0.0973722
129.4	0.0971979
129.5	0.0970213
129.6	0.0968475
129.7	0.0966754
129.8	0.0965032
129.9	0.0963304
130	0.0961564
130.1	0.0959817
130.2	0.0958065
130.3	0.0956293
130.4	0.095452
130.5	0.0952768
130.6	0.0951006
130.7	0.0949222
130.8	0.0947452
130.9	0.0945695
131	0.0943939
131.1	0.0942212
131.2	0.0940518
131.3	0.0938834
131.4	0.0937193
131.5	0.0935603
131.6	0.0933999
131.7	0.0932384
131.8	0.0930748
131.9	0.0929152
132	0.0927587
132.1	0.0926072
132.2	0.0924638
132.3	0.0923285
132.4	0.092195
132.5	0.0920555
132.6	0.0919122
132.7	0.0917624
132.8	0.0916103
132.9	0.0914633
133	0.091318
133.1	0.0911748
133.2	0.0910295
133.3	0.0908858
133.4	0.0907458
133.5	0.0906068
133.6	0.090469
133.7	0.0903283
133.8	0.0901848
133.9	0.0900403
134	0.089899
134.1	0.0897582
134.2	0.0896125
134.3	0.0894668
134.4	0.0893214
134.5	0.0891788
134.6	0.0890364
134.7	0.0888938
134.8	0.088754
134.9	0.0886105
135	0.0884681
135.1	0.0883266
135.2	0.0881849
135.3	0.0880419
135.4	0.0878981
135.5	0.0877575
135.6	0.0876229
135.7	0.0874926
135.8	0.0873665
135.9	0.0872413
136	0.087116
136.1	0.0869934
136.2	0.0868682
136.3	0.0867424
136.4	0.0866212
136.5	0.0865039
136.6	0.0863886
136.7	0.0862781
136.8	0.0861734
136.9	0.0860786
137	0.0859869
137.1	0.0858948
137.2	0.0858002
137.3	0.0857077
137.4	0.0856128
137.5	0.0855158
137.6	0.0854134
137.7	0.0853045
137.8	0.0851939
137.9	0.0850799
138	0.0849596
138.1	0.0848341
138.2	0.084708
138.3	0.0845821
138.4	0.0844587
138.5	0.0843358
138.6	0.0842127
138.7	0.0840892
138.8	0.0839671
138.9	0.0838445
139	0.083726
139.1	0.0836114
139.2	0.0834973
139.3	0.0833807
139.4	0.0832663
139.5	0.0831518
139.6	0.0830363
139.7	0.0829176
139.8	0.082801
139.9	0.082687
140	0.0825726
140.1	0.0824579
140.2	0.0823398
140.3	0.0822223
140.4	0.0821028
140.5	0.0819777
140.6	0.0818444
140.7	0.0817052
140.8	0.0815661
140.9	0.0814288
141	0.0812919
141.1	0.0811524
141.2	0.0810129
141.3	0.0808709
141.4	0.0807256
141.5	0.08058
141.6	0.0804356
141.7	0.0802934
141.8	0.0801506
141.9	0.0800053
142	0.0798625
142.1	0.0797281
142.2	0.0795995
142.3	0.0794718
142.4	0.0793381
142.5	0.0791966
142.6	0.0790454
142.7	0.078891
142.8	0.0787382
142.9	0.0785827
143	0.078429
143.1	0.0782722
143.2	0.0781103
143.3	0.0779459
143.4	0.0777845
143.5	0.0776254
143.6	0.0774621
