LagTime	Correlation

0	0.669947
0.1	0.664926
0.2	0.657433
0.3	0.649392
0.4	0.641289
0.5	0.633246
0.6	0.625297
0.7	0.617446
0.8	0.609693
0.9	0.602043
1	0.594495
1.1	0.587045
1.2	0.579688
1.3	0.572423
1.4	0.565251
1.5	0.558173
1.6	0.551189
1.7	0.544292
1.8	0.537477
1.9	0.530747
2	0.524104
2.1	0.517549
2.2	0.511081
2.3	0.5047
2.4	0.498402
2.5	0.492189
2.6	0.486055
2.7	0.48
2.8	0.47402
2.9	0.468116
3	0.462289
3.1	0.456533
3.2	0.45085
3.3	0.445236
3.4	0.43969
3.5	0.434208
3.6	0.428792
3.7	0.423444
3.8	0.418161
3.9	0.412951
4	0.407807
4.1	0.402725
4.2	0.397705
4.3	0.392745
4.4	0.387848
4.5	0.383014
4.6	0.378242
4.7	0.373524
4.8	0.368861
4.9	0.364257
5	0.359712
5.1	0.355226
5.2	0.350792
5.3	0.34641
5.4	0.342082
5.5	0.337809
5.6	0.333589
5.7	0.32942
5.8	0.325302
5.9	0.321237
6	0.317221
6.1	0.313256
6.2	0.309343
6.3	0.305484
6.4	0.301672
6.5	0.297909
6.6	0.294198
6.7	0.290539
6.8	0.286925
6.9	0.28336
7	0.279843
7.1	0.276369
7.2	0.272943
7.3	0.269557
7.4	0.26621
7.5	0.262905
7.6	0.259641
7.7	0.256415
7.8	0.25323
7.9	0.250082
8	0.246972
8.1	0.243896
8.2	0.240855
8.3	0.237849
8.4	0.234875
8.5	0.231934
8.6	0.229031
8.7	0.226166
8.8	0.22334
8.9	0.220546
9	0.217785
9.1	0.21506
9.2	0.212366
9.3	0.209702
9.4	0.20707
9.5	0.204475
9.6	0.201914
9.7	0.199386
9.8	0.196891
9.9	0.19443
10	0.191997
10.1	0.189593
10.2	0.18722
10.3	0.184877
10.4	0.182563
10.5	0.180275
10.6	0.178014
10.7	0.175778
10.8	0.173568
10.9	0.171386
11	0.169234
11.1	0.167106
11.2	0.165003
11.3	0.16293
11.4	0.160889
11.5	0.158879
11.6	0.156894
11.7	0.154932
11.8	0.152997
11.9	0.151086
12	0.1492
12.1	0.147337
12.2	0.145498
12.3	0.143685
12.4	0.141892
12.5	0.14012
12.6	0.138371
12.7	0.136643
12.8	0.134938
12.9	0.133252
13	0.131587
13.1	0.129938
13.2	0.128308
13.3	0.126694
13.4	0.125103
13.5	0.123534
13.6	0.121986
13.7	0.120462
13.8	0.118961
13.9	0.117479
14	0.116018
14.1	0.114578
14.2	0.113153
14.3	0.111745
14.4	0.110358
14.5	0.108995
14.6	0.107648
14.7	0.106321
14.8	0.105011
14.9	0.103717
15	0.102436
15.1	0.10117
15.2	0.0999126
15.3	0.0986599
15.4	0.0974177
15.5	0.0961914
15.6	0.0949773
15.7	0.0937785
15.8	0.0925935
15.9	0.0914229
16	0.0902638
16.1	0.0891153
16.2	0.0879803
16.3	0.0868599
16.4	0.0857504
16.5	0.0846505
16.6	0.083567
16.7	0.0825003
16.8	0.081451
16.9	0.0804149
17	0.0793937
17.1	0.0783839
17.2	0.0773847
17.3	0.0764006
17.4	0.0754314
17.5	0.0744805
17.6	0.0735469
17.7	0.0726257
17.8	0.0717114
17.9	0.07081
18	0.069926
18.1	0.0690543
18.2	0.0681925
18.3	0.0673443
18.4	0.0665092
18.5	0.0656832
18.6	0.0648631
18.7	0.064055
18.8	0.0632601
18.9	0.0624765
19	0.0617033
19.1	0.0609412
19.2	0.0601908
19.3	0.0594494
19.4	0.058717
19.5	0.05799
19.6	0.0572703
19.7	0.0565579
19.8	0.0558531
19.9	0.0551568
20	0.0544673
20.1	0.0537811
20.2	0.0531
20.3	0.0524273
20.4	0.0517633
20.5	0.051112
20.6	0.0504705
20.7	0.0498377
20.8	0.0492133
20.9	0.0485968
21	0.0479865
21.1	0.0473837
21.2	0.0467919
21.3	0.0462109
21.4	0.045637
21.5	0.0450748
21.6	0.0445219
21.7	0.0439724
21.8	0.0434228
21.9	0.0428742
22	0.0423292
22.1	0.0417866
22.2	0.0412472
22.3	0.0407094
22.4	0.040179
22.5	0.0396532
22.6	0.0391324
22.7	0.0386146
22.8	0.0380996
22.9	0.0375948
23	0.0370998
23.1	0.0366142
23.2	0.0361337
23.3	0.0356629
23.4	0.0351981
23.5	0.0347331
23.6	0.0342676
23.7	0.0338066
23.8	0.0333508
23.9	0.0329032
24	0.0324609
24.1	0.0320244
24.2	0.0315927
24.3	0.0311687
24.4	0.0307504
24.5	0.0303373
24.6	0.0299349
24.7	0.0295372
24.8	0.0291421
24.9	0.0287492
25	0.0283613
25.1	0.0279745
25.2	0.0275908
25.3	0.0272156
25.4	0.026846
25.5	0.0264771
25.6	0.0261104
25.7	0.0257478
25.8	0.0253916
25.9	0.0250434
26	0.0247023
26.1	0.0243693
26.2	0.0240414
26.3	0.0237192
26.4	0.0233888
26.5	0.023052
26.6	0.0227195
26.7	0.0223897
26.8	0.0220623
26.9	0.0217398
27	0.0214254
27.1	0.0211123
27.2	0.0208021
27.3	0.0205003
27.4	0.0202049
27.5	0.0199189
27.6	0.0196412
27.7	0.0193713
27.8	0.0191027
27.9	0.0188371
28	0.0185694
28.1	0.0183008
28.2	0.0180333
28.3	0.0177696
28.4	0.0175061
28.5	0.0172415
28.6	0.0169776
28.7	0.0167185
28.8	0.0164625
28.9	0.0162113
29	0.0159653
29.1	0.0157189
29.2	0.0154725
29.3	0.0152306
29.4	0.0149972
29.5	0.0147711
29.6	0.0145503
29.7	0.0143331
29.8	0.0141161
29.9	0.013906
30	0.0136963
30.1	0.0134847
30.2	0.0132776
30.3	0.0130758
30.4	0.012873
30.5	0.0126721
30.6	0.0124742
30.7	0.0122787
30.8	0.0120852
30.9	0.0118934
31	0.011707
31.1	0.0115257
31.2	0.0113524
31.3	0.0111848
31.4	0.0110212
31.5	0.0108612
31.6	0.0106987
31.7	0.0105375
31.8	0.0103819
31.9	0.0102296
32	0.0100819
32.1	0.00993443
32.2	0.00978812
32.3	0.00964431
32.4	0.00950104
32.5	0.00936734
32.6	0.00923881
32.7	0.00911503
32.8	0.00898964
32.9	0.00886378
33	0.0087424
33.1	0.0086257
33.2	0.00850672
33.3	0.00838508
33.4	0.00826559
33.5	0.00814758
33.6	0.00802842
33.7	0.00790941
33.8	0.00779526
33.9	0.00768791
34	0.00758479
34.1	0.00748129
34.2	0.00737707
34.3	0.00727172
34.4	0.00716528
34.5	0.0070584
34.6	0.00695554
34.7	0.0068539
34.8	0.00675868
34.9	0.00666665
35	0.00657839
35.1	0.00648798
35.2	0.0063969
35.3	0.00630667
35.4	0.00621857
35.5	0.00613368
35.6	0.00605047
35.7	0.00596654
35.8	0.00588399
35.9	0.00579631
36	0.00570676
36.1	0.00561617
36.2	0.00552192
36.3	0.00542717
36.4	0.00533212
36.5	0.00523383
36.6	0.00513297
36.7	0.00503331
36.8	0.00493023
36.9	0.00482926
37	0.00472954
37.1	0.00463057
37.2	0.00453233
37.3	0.00443531
37.4	0.00434054
37.5	0.00424871
37.6	0.00415464
37.7	0.0040635
37.8	0.00397235
37.9	0.00387963
38	0.00378157
38.1	0.0036829
38.2	0.00358358
38.3	0.00348439
38.4	0.00338467
38.5	0.00328468
38.6	0.00318615
38.7	0.00308752
38.8	0.00298729
38.9	0.00289329
39	0.00280194
39.1	0.00270867
39.2	0.0026139
39.3	0.00252034
39.4	0.00242219
39.5	0.00232303
39.6	0.00222305
39.7	0.002127
39.8	0.00202973
39.9	0.00193358
40	0.00184065
40.1	0.00175178
40.2	0.00166431
40.3	0.00157558
40.4	0.00149011
40.5	0.00140603
40.6	0.00132322
40.7	0.00124554
40.8	0.00117973
40.9	0.00111741
41	0.00105581
41.1	0.000998155
41.2	0.000940715
41.3	0.000880875
41.4	0.000822283
41.5	0.000757686
41.6	0.000693265
41.7	0.000633547
41.8	0.000574063
41.9	0.000512406
42	0.000451917
42.1	0.000391032
42.2	0.00033134
42.3	0.000271199
42.4	0.000205443
42.5	0.000137265
42.6	6.8783e-05
42.7	7.85181e-06
42.8	-5.11171e-05
42.9	-0.000105848
43	-0.000155614
43.1	-0.000200587
43.2	-0.000242667
43.3	-0.000283197
43.4	-0.0003227
43.5	-0.000358292
43.6	-0.000392602
43.7	-0.000426851
43.8	-0.000462313
43.9	-0.000500051
44	-0.000541231
44.1	-0.00058476
44.2	-0.000622254
44.3	-0.000657607
44.4	-0.000697279
44.5	-0.000740874
44.6	-0.000784637
44.7	-0.000826911
44.8	-0.000876101
44.9	-0.000927375
45	-0.000975147
45.1	-0.00101909
45.2	-0.00106386
45.3	-0.0011075
45.4	-0.00114775
45.5	-0.00118867
45.6	-0.00122816
45.7	-0.00126704
45.8	-0.00130426
45.9	-0.00133813
46	-0.00137017
46.1	-0.00140115
46.2	-0.00142775
46.3	-0.00145387
46.4	-0.00147608
46.5	-0.00149453
46.6	-0.00151067
46.7	-0.00152556
46.8	-0.00153942
46.9	-0.00155056
47	-0.00155717
47.1	-0.00156393
47.2	-0.00156985
47.3	-0.00158329
47.4	-0.0016027
47.5	-0.00162017
47.6	-0.00163492
47.7	-0.00164559
47.8	-0.00165513
47.9	-0.00166048
48	-0.00166421
48.1	-0.00166694
48.2	-0.00166762
48.3	-0.00166268
48.4	-0.00164998
48.5	-0.00163712
48.6	-0.00162413
48.7	-0.00161301
48.8	-0.00159978
48.9	-0.00158774
49	-0.00157023
49.1	-0.00155108
49.2	-0.00152964
49.3	-0.00151198
49.4	-0.00149546
49.5	-0.00147796
49.6	-0.00146285
49.7	-0.00144849
49.8	-0.00143526
49.9	-0.00142462
50	-0.00141561
50.1	-0.00140589
50.2	-0.00139881
50.3	-0.00139221
50.4	-0.00138212
50.5	-0.00137012
50.6	-0.00135879
50.7	-0.00134832
50.8	-0.001335
50.9	-0.0013203
51	-0.00130432
51.1	-0.00128666
51.2	-0.00126974
51.3	-0.00124809
51.4	-0.00122614
51.5	-0.00119949
51.6	-0.0011712
51.7	-0.00114439
51.8	-0.00111881
51.9	-0.00109376
52	-0.00107108
52.1	-0.00104769
52.2	-0.00102377
52.3	-0.000999299
52.4	-0.000972976
52.5	-0.000949788
52.6	-0.000930408
52.7	-0.000917183
52.8	-0.000911438
52.9	-0.000910738
53	-0.00091037
53.1	-0.000906351
53.2	-0.000899846
53.3	-0.000898341
53.4	-0.000896372
53.5	-0.00089504
53.6	-0.000894205
53.7	-0.000894404
53.8	-0.000895543
53.9	-0.000894009
54	-0.000889335
54.1	-0.000880603
54.2	-0.000870478
54.3	-0.000860793
54.4	-0.000850186
54.5	-0.000838754
54.6	-0.000829586
54.7	-0.000825334
54.8	-0.000824608
54.9	-0.000825406
55	-0.000819377
55.1	-0.000813483
55.2	-0.000801765
55.3	-0.000789933
55.4	-0.000774779
55.5	-0.000755294
55.6	-0.000731438
55.7	-0.000704405
55.8	-0.000673777
55.9	-0.00064036
56	-0.000601011
56.1	-0.00055915
56.2	-0.000519225
56.3	-0.000478112
56.4	-0.000439511
56.5	-0.000400335
56.6	-0.000360723
56.7	-0.000317439
56.8	-0.000277346
56.9	-0.000241593
57	-0.000202463
57.1	-0.000154695
57.2	-9.91572e-05
57.3	-3.69223e-05
57.4	2.17665e-05
57.5	7.93553e-05
57.6	0.000134408
57.7	0.000185501
57.8	0.000233075
57.9	0.000273726
58	0.000310058
58.1	0.000343126
58.2	0.000375699
58.3	0.00040861
58.4	0.000442723
58.5	0.000477275
58.6	0.000512781
58.7	0.000548032
58.8	0.000583828
58.9	0.000622749
59	0.000662294
59.1	0.000703537
59.2	0.000748563
59.3	0.000797237
59.4	0.000849536
59.5	0.000907965
59.6	0.00097382
59.7	0.00104641
59.8	0.00111756
59.9	0.00118833
60	0.00125873
60.1	0.00133044
60.2	0.00140402
60.3	0.00147772
60.4	0.00154893
60.5	0.00161876
60.6	0.00168949
60.7	0.00175769
60.8	0.00182559
60.9	0.00189082
61	0.0019529
61.1	0.00201333
61.2	0.00206964
61.3	0.00212065
61.4	0.00216856
61.5	0.00220985
61.6	0.00224651
61.7	0.00227958
61.8	0.00231366
61.9	0.00235483
62	0.00239671
62.1	0.00244023
62.2	0.00248613
62.3	0.00253499
62.4	0.00258333
62.5	0.00263335
62.6	0.00269014
62.7	0.00274892
62.8	0.00280935
62.9	0.00287147
63	0.00293464
63.1	0.00299352
63.2	0.00304811
63.3	0.0031009
63.4	0.00315263
63.5	0.00320055
63.6	0.00324567
63.7	0.0032891
63.8	0.0033291
63.9	0.00336871
64	0.00340914
64.1	0.0034463
64.2	0.0034775
64.3	0.0035047
64.4	0.0035268
64.5	0.00354114
64.6	0.00355736
64.7	0.00357365
64.8	0.0035911
64.9	0.00360869
65	0.00362273
65.1	0.00363077
65.2	0.00363143
65.3	0.00362763
65.4	0.00361965
65.5	0.00361273
65.6	0.00360909
65.7	0.00360797
65.8	0.00360314
65.9	0.00359529
66	0.00359118
66.1	0.00358969
66.2	0.00358657
66.3	0.00357893
66.4	0.00357185
66.5	0.00356152
66.6	0.00354401
66.7	0.00352119
66.8	0.00348946
66.9	0.00345161
67	0.00341284
67.1	0.00337391
67.2	0.00333508
67.3	0.00329799
67.4	0.00325794
67.5	0.00321538
67.6	0.00316775
67.7	0.00311772
67.8	0.0030741
67.9	0.00302964
68	0.00298569
68.1	0.00294477
68.2	0.00290724
68.3	0.00287134
68.4	0.00283347
68.5	0.00279718
68.6	0.0027641
68.7	0.00273141
68.8	0.00270747
68.9	0.00268836
69	0.0026694
69.1	0.00265197
69.2	0.00263996
69.3	0.0026349
69.4	0.0026323
69.5	0.00262821
69.6	0.00262573
69.7	0.00262318
69.8	0.00262567
69.9	0.00263277
70	0.00264096
70.1	0.00264408
70.2	0.00264454
70.3	0.00264287
70.4	0.00263989
70.5	0.0026377
70.6	0.00263309
70.7	0.00262497
70.8	0.00261611
70.9	0.00260784
71	0.0025957
71.1	0.00258657
71.2	0.00258496
71.3	0.00258374
71.4	0.00258057
71.5	0.00257778
71.6	0.0025778
71.7	0.00258152
71.8	0.00258861
71.9	0.00259624
72	0.00259675
72.1	0.0025943
72.2	0.00259047
72.3	0.0025852
72.4	0.002585
72.5	0.00258441
72.6	0.00257966
72.7	0.00257222
72.8	0.00255619
72.9	0.00253508
73	0.00250952
73.1	0.00247958
73.2	0.00244685
73.3	0.00241089
73.4	0.00237209
73.5	0.00233096
73.6	0.0022904
73.7	0.00224705
73.8	0.00220407
73.9	0.00216115
74	0.00212069
74.1	0.00207974
74.2	0.00204102
74.3	0.00200782
74.4	0.00197675
74.5	0.00194559
74.6	0.00191433
74.7	0.00188765
74.8	0.00186172
74.9	0.00183679
75	0.00181319
75.1	0.00178861
75.2	0.00176629
75.3	0.00174207
75.4	0.00171408
75.5	0.00168124
75.6	0.00164926
75.7	0.00161345
75.8	0.0015736
75.9	0.00153479
76	0.00150042
76.1	0.00147768
76.2	0.00146055
76.3	0.00144385
76.4	0.00142764
76.5	0.00140883
76.6	0.0013903
76.7	0.0013723
76.8	0.00135628
76.9	0.00134252
77	0.00132771
77.1	0.0013151
77.2	0.00130138
77.3	0.00128657
77.4	0.00126972
77.5	0.00125227
77.6	0.00123836
77.7	0.00122629
77.8	0.00121589
77.9	0.00121201
78	0.00121452
78.1	0.00121954
78.2	0.00122414
78.3	0.00122838
78.4	0.00122876
78.5	0.00122379
78.6	0.00121594
78.7	0.00120328
78.8	0.00118769
78.9	0.00117365
79	0.00116201
79.1	0.00115439
79.2	0.00115264
79.3	0.00115214
79.4	0.00115585
79.5	0.00116089
79.6	0.00116259
79.7	0.0011606
79.8	0.00115428
79.9	0.00114706
80	0.00113916
80.1	0.00112845
80.2	0.00111597
80.3	0.00110995
80.4	0.00110724
80.5	0.00110558
80.6	0.00110548
80.7	0.00110452
80.8	0.00110387
80.9	0.00109995
81	0.00109384
81.1	0.00108928
81.2	0.00108545
81.3	0.00108279
81.4	0.00108284
81.5	0.00108498
81.6	0.00108674
81.7	0.00109243
81.8	0.00109871
81.9	0.00110603
82	0.00111693
82.1	0.00113089
82.2	0.0011454
82.3	0.00116229
82.4	0.00118427
82.5	0.00120161
82.6	0.00121337
82.7	0.00122309
82.8	0.0012303
82.9	0.00123535
83	0.00124047
83.1	0.001246
83.2	0.00124805
83.3	0.00125045
83.4	0.00125205
83.5	0.00125281
83.6	0.00125617
83.7	0.00125853
83.8	0.00126251
83.9	0.00126972
84	0.00127864
84.1	0.00129426
84.2	0.00131307
84.3	0.00133024
84.4	0.00134999
84.5	0.00137561
84.6	0.00140995
84.7	0.00144362
84.8	0.00147943
84.9	0.00151184
85	0.00154468
85.1	0.0015791
85.2	0.00161937
85.3	0.00166524
85.4	0.0017104
85.5	0.00175654
85.6	0.00179918
85.7	0.00184248
85.8	0.00188353
85.9	0.00192507
86	0.00196473
86.1	0.00200341
86.2	0.00204308
86.3	0.0020844
86.4	0.00212183
86.5	0.00216011
86.6	0.0021993
86.7	0.00223454
86.8	0.00226363
86.9	0.00229271
87	0.00232423
87.1	0.0023556
87.2	0.00238833
87.3	0.00241772
87.4	0.00244395
87.5	0.00246876
87.6	0.00249531
87.7	0.00252605
87.8	0.00256049
87.9	0.00259829
88	0.00263717
88.1	0.0026798
88.2	0.00272542
88.3	0.00277036
88.4	0.00281421
88.5	0.00285236
88.6	0.00288339
88.7	0.00291029
88.8	0.00293806
88.9	0.0029683
89	0.00300251
89.1	0.00303513
89.2	0.00306854
89.3	0.00310454
89.4	0.00314054
89.5	0.00317095
89.6	0.00319798
89.7	0.00322361
89.8	0.00324495
89.9	0.00326755
90	0.00329225
90.1	0.00331418
90.2	0.0033335
90.3	0.00335012
90.4	0.0033645
90.5	0.00337609
90.6	0.00338704
90.7	0.00339781
90.8	0.00340751
90.9	0.0034159
91	0.00342295
91.1	0.00342374
91.2	0.00342145
91.3	0.00341595
91.4	0.00340483
91.5	0.00339198
91.6	0.00337648
91.7	0.00335994
91.8	0.00334367
91.9	0.00331964
92	0.0032887
92.1	0.00326137
92.2	0.00323928
92.3	0.00322111
92.4	0.00320679
92.5	0.00319025
92.6	0.00317361
92.7	0.00315227
92.8	0.00312628
92.9	0.00310397
93	0.00308276
93.1	0.0030635
93.2	0.00304166
93.3	0.00302051
93.4	0.0030031
93.5	0.00298547
93.6	0.00296654
93.7	0.00294113
93.8	0.00291104
93.9	0.00288049
94	0.0028495
94.1	0.00281707
94.2	0.00278514
94.3	0.00275364
94.4	0.00272852
94.5	0.00270693
94.6	0.00268334
94.7	0.00266046
94.8	0.00263993
94.9	0.00262097
95	0.00260238
95.1	0.00258661
95.2	0.00257014
95.3	0.00255577
95.4	0.00254448
95.5	0.00253957
95.6	0.00253645
95.7	0.00253584
95.8	0.00253933
95.9	0.00254364
96	0.00254515
96.1	0.00254145
96.2	0.00253699
96.3	0.00253105
96.4	0.00252415
96.5	0.00251437
96.6	0.00249892
96.7	0.00248181
96.8	0.00246442
96.9	0.00244927
97	0.00242718
97.1	0.00240216
97.2	0.00237371
97.3	0.00234688
97.4	0.00231872
97.5	0.00229098
97.6	0.00227059
97.7	0.00225713
97.8	0.00224838
97.9	0.00224271
98	0.0022336
98.1	0.00222246
98.2	0.00221736
98.3	0.00221602
98.4	0.00221174
98.5	0.00220519
98.6	0.00219369
98.7	0.00217998
98.8	0.00217245
98.9	0.00216928
99	0.00216726
99.1	0.00216711
99.2	0.00217132
99.3	0.00218023
99.4	0.00218993
99.5	0.00219826
99.6	0.00220823
99.7	0.00221668
99.8	0.00222169
99.9	0.00221923
100	0.00221766
100.1	0.00221816
100.2	0.00222163
100.3	0.00222114
100.4	0.00222138
100.5	0.002216
100.6	0.00220564
100.7	0.00219007
100.8	0.00217621
100.9	0.0021533
101	0.00212591
101.1	0.0020977
101.2	0.00206875
101.3	0.0020393
101.4	0.00201545
101.5	0.00199603
101.6	0.00198189
101.7	0.00197243
101.8	0.00196684
101.9	0.00196453
102	0.0019623
102.1	0.00195725
102.2	0.00195127
102.3	0.00194284
102.4	0.00193489
102.5	0.00192676
102.6	0.0019109
102.7	0.00189112
102.8	0.00187077
102.9	0.0018519
103	0.0018315
103.1	0.00181828
103.2	0.00181221
103.3	0.00180586
103.4	0.00180185
103.5	0.00180352
103.6	0.00180382
103.7	0.00180392
103.8	0.00180322
103.9	0.00179708
104	0.00178554
104.1	0.0017739
104.2	0.00176306
104.3	0.00175296
104.4	0.00174208
104.5	0.00172818
104.6	0.00171092
104.7	0.00169599
104.8	0.00168255
104.9	0.00166818
105	0.00165621
105.1	0.00164628
105.2	0.00163916
105.3	0.00163496
105.4	0.00163165
105.5	0.00162819
105.6	0.00161661
105.7	0.00159789
105.8	0.0015793
105.9	0.0015642
106	0.00155018
106.1	0.00153522
106.2	0.00151823
106.3	0.00150262
106.4	0.00148939
106.5	0.00147743
106.6	0.001465
106.7	0.00145372
106.8	0.00144753
106.9	0.00144429
107	0.00144578
107.1	0.00144879
107.2	0.00145006
107.3	0.00145056
107.4	0.00145228
107.5	0.00145599
107.6	0.0014576
107.7	0.00145788
107.8	0.00145278
107.9	0.00144823
108	0.00144284
108.1	0.00143897
108.2	0.00143681
108.3	0.00144004
108.4	0.00144962
108.5	0.0014632
108.6	0.00147895
108.7	0.00149301
108.8	0.00150178
108.9	0.00151155
109	0.00152284
109.1	0.00153547
109.2	0.00154979
109.3	0.00156705
109.4	0.00158433
109.5	0.00160039
109.6	0.00161318
109.7	0.00162439
109.8	0.00163338
109.9	0.00163999
110	0.00163966
110.1	0.00163796
110.2	0.00163495
110.3	0.00163355
110.4	0.00163083
110.5	0.00163096
110.6	0.00163219
110.7	0.00163502
110.8	0.00163481
110.9	0.00162907
111	0.00161821
111.1	0.00160235
111.2	0.00158425
111.3	0.00156601
111.4	0.00155206
111.5	0.00153843
111.6	0.00152309
111.7	0.00151051
111.8	0.00149952
111.9	0.00149312
112	0.00149097
112.1	0.00149183
112.2	0.00150182
112.3	0.00151147
112.4	0.00152282
112.5	0.00153571
112.6	0.00154722
112.7	0.00156193
112.8	0.00157994
112.9	0.00160093
113	0.00162037
113.1	0.0016359
113.2	0.00165073
113.3	0.00166619
113.4	0.00168088
113.5	0.00169459
113.6	0.00170327
113.7	0.00171359
113.8	0.00172136
113.9	0.00172576
114	0.0017258
114.1	0.00171921
114.2	0.00170654
114.3	0.00169149
114.4	0.00167745
114.5	0.00166473
114.6	0.00165604
114.7	0.00164759
114.8	0.0016424
114.9	0.00164246
115	0.0016477
115.1	0.00165012
115.2	0.00164746
115.3	0.0016421
115.4	0.00163672
115.5	0.0016288
115.6	0.00162493
115.7	0.00161911
115.8	0.00161642
115.9	0.00161301
116	0.00160614
116.1	0.001598
116.2	0.00159093
116.3	0.00158296
116.4	0.0015736
116.5	0.00156265
116.6	0.00155332
116.7	0.00154658
116.8	0.00153832
116.9	0.00153073
117	0.00152202
117.1	0.00150899
117.2	0.00149315
117.3	0.00147291
117.4	0.00145591
117.5	0.00143993
117.6	0.00142599
117.7	0.0014145
117.8	0.00140679
117.9	0.00140083
118	0.00139307
118.1	0.00138793
118.2	0.00138041
118.3	0.00136952
118.4	0.00135508
118.5	0.00133567
118.6	0.0013116
118.7	0.00128696
118.8	0.00126107
118.9	0.00123623
119	0.00121204
119.1	0.00118728
119.2	0.0011619
119.3	0.00113785
119.4	0.00111406
119.5	0.00108773
119.6	0.00106473
119.7	0.00104837
119.8	0.00103144
119.9	0.00101256
120	0.000987306
120.1	0.000958912
120.2	0.000928916
120.3	0.000899727
120.4	0.000872076
120.5	0.000842991
120.6	0.000815074
120.7	0.00078989
120.8	0.000769585
120.9	0.000751144
121	0.000729699
121.1	0.000706753
121.2	0.000686558
121.3	0.000671998
121.4	0.00065884
121.5	0.000645744
121.6	0.000629347
121.7	0.000617795
121.8	0.000611127
121.9	0.000610574
122	0.000614441
122.1	0.000624546
122.2	0.000632681
122.3	0.000634073
122.4	0.000629144
122.5	0.000624005
122.6	0.00061689
122.7	0.000607539
122.8	0.000594761
122.9	0.000579131
123	0.000565316
123.1	0.00055244
123.2	0.000544963
123.3	0.000538163
123.4	0.000534836
123.5	0.000528319
123.6	0.000519114
123.7	0.000505513
123.8	0.000492289
123.9	0.000479163
124	0.000465141
124.1	0.000452191
124.2	0.000439471
124.3	0.000429297
124.4	0.000423518
124.5	0.000417078
124.6	0.000408058
124.7	0.00039688
124.8	0.00037916
124.9	0.000352044
125	0.000321569
125.1	0.00028662
125.2	0.00024699
125.3	0.000207634
125.4	0.000166319
125.5	0.000127197
125.6	9.11163e-05
125.7	5.53444e-05
125.8	1.78916e-05
125.9	-1.766e-05
126	-5.04593e-05
126.1	-8.2078e-05
126.2	-0.000113884
126.3	-0.000144541
126.4	-0.000173953
126.5	-0.000208515
126.6	-0.000243694
126.7	-0.000275048
126.8	-0.000305539
126.9	-0.000338229
127	-0.000373523
