LagTime	Correlation

0	1.3596
0.1	1.35459
0.2	1.34709
0.3	1.33903
0.4	1.33088
0.5	1.32277
0.6	1.31471
0.7	1.30673
0.8	1.29882
0.9	1.29098
1	1.28321
1.1	1.27551
1.2	1.26787
1.3	1.26029
1.4	1.25278
1.5	1.24534
1.6	1.23796
1.7	1.23065
1.8	1.22339
1.9	1.2162
2	1.20908
2.1	1.20203
2.2	1.19504
2.3	1.18811
2.4	1.18124
2.5	1.17443
2.6	1.16768
2.7	1.161
2.8	1.15438
2.9	1.14782
3	1.14132
3.1	1.13486
3.2	1.12845
3.3	1.1221
3.4	1.1158
3.5	1.10955
3.6	1.10335
3.7	1.0972
3.8	1.0911
3.9	1.08505
4	1.07906
4.1	1.07312
4.2	1.06722
4.3	1.06137
4.4	1.05556
4.5	1.0498
4.6	1.04409
4.7	1.03841
4.8	1.03279
4.9	1.02722
5	1.0217
5.1	1.01621
5.2	1.01078
5.3	1.00538
5.4	1.00002
5.5	0.994702
5.6	0.98942
5.7	0.984174
5.8	0.978966
5.9	0.9738
6	0.968673
6.1	0.963582
6.2	0.958534
6.3	0.95353
6.4	0.948564
6.5	0.943636
6.6	0.938742
6.7	0.933881
6.8	0.929053
6.9	0.924259
7	0.919498
7.1	0.914773
7.2	0.910085
7.3	0.905436
7.4	0.900823
7.5	0.896245
7.6	0.8917
7.7	0.887184
7.8	0.8827
7.9	0.878253
8	0.873841
8.1	0.869467
8.2	0.865124
8.3	0.860817
8.4	0.856542
8.5	0.852298
8.6	0.848088
8.7	0.843909
8.8	0.839763
8.9	0.835653
9	0.831582
9.1	0.827546
9.2	0.823542
9.3	0.819566
9.4	0.81562
9.5	0.811705
9.6	0.807817
9.7	0.803957
9.8	0.800126
9.9	0.796324
10	0.792546
10.1	0.788796
10.2	0.78507
10.3	0.781371
10.4	0.777692
10.5	0.774036
10.6	0.770409
10.7	0.766804
10.8	0.763226
10.9	0.759677
11	0.756159
11.1	0.752665
11.2	0.749193
11.3	0.745744
11.4	0.742317
11.5	0.738919
11.6	0.735544
11.7	0.73219
11.8	0.728855
11.9	0.725539
12	0.72224
12.1	0.718963
12.2	0.7157
12.3	0.712456
12.4	0.709233
12.5	0.706033
12.6	0.702858
12.7	0.699705
12.8	0.696576
12.9	0.693468
13	0.690381
13.1	0.687315
13.2	0.684278
13.3	0.681258
13.4	0.678255
13.5	0.67527
13.6	0.672307
13.7	0.669358
13.8	0.666425
13.9	0.663508
14	0.660608
14.1	0.657729
14.2	0.654871
14.3	0.652039
14.4	0.649234
14.5	0.646453
14.6	0.643691
14.7	0.640948
14.8	0.638223
14.9	0.635512
15	0.632816
15.1	0.630141
15.2	0.627493
15.3	0.624873
15.4	0.622273
15.5	0.619696
15.6	0.61714
15.7	0.614602
15.8	0.612077
15.9	0.609567
16	0.607067
16.1	0.604576
16.2	0.602099
16.3	0.599634
16.4	0.597179
16.5	0.594735
16.6	0.592304
16.7	0.58988
16.8	0.587469
16.9	0.585071
17	0.582688
17.1	0.580313
17.2	0.577942
17.3	0.575582
17.4	0.573234
17.5	0.570897
17.6	0.568574
17.7	0.56626
17.8	0.563958
17.9	0.561668
18	0.559396
18.1	0.557137
18.2	0.554891
18.3	0.552654
18.4	0.550433
18.5	0.548227
18.6	0.546038
18.7	0.543862
18.8	0.541694
18.9	0.539535
19	0.53739
19.1	0.535256
19.2	0.533134
19.3	0.531025
19.4	0.528926
19.5	0.52684
19.6	0.52477
19.7	0.522711
19.8	0.520663
19.9	0.518631
20	0.516611
20.1	0.514607
20.2	0.512618
20.3	0.510643
20.4	0.508678
20.5	0.506721
20.6	0.504772
20.7	0.502831
20.8	0.500898
20.9	0.498976
21	0.497062
21.1	0.495155
21.2	0.493253
21.3	0.491362
21.4	0.489475
21.5	0.487596
21.6	0.485721
21.7	0.483851
21.8	0.481991
21.9	0.480141
22	0.478295
22.1	0.476456
22.2	0.474625
22.3	0.472806
22.4	0.471002
22.5	0.469212
22.6	0.467434
22.7	0.465667
22.8	0.463909
22.9	0.462162
23	0.460424
23.1	0.458695
23.2	0.456973
23.3	0.455266
23.4	0.453569
23.5	0.451882
23.6	0.450199
23.7	0.448519
23.8	0.446843
23.9	0.445173
24	0.443515
24.1	0.44187
24.2	0.440237
24.3	0.438615
24.4	0.437004
24.5	0.435403
24.6	0.433811
24.7	0.432225
24.8	0.430646
24.9	0.429077
25	0.427509
25.1	0.42595
25.2	0.424401
25.3	0.422855
25.4	0.42131
25.5	0.419772
25.6	0.418242
25.7	0.416724
25.8	0.41522
25.9	0.413728
26	0.412241
26.1	0.410761
26.2	0.409283
26.3	0.40781
26.4	0.40635
26.5	0.404903
26.6	0.403462
26.7	0.402034
26.8	0.400615
26.9	0.399207
27	0.397807
27.1	0.396415
27.2	0.395033
27.3	0.393664
27.4	0.39231
27.5	0.390963
27.6	0.389621
27.7	0.388276
27.8	0.386934
27.9	0.3856
28	0.384275
28.1	0.382959
28.2	0.381652
28.3	0.380351
28.4	0.379051
28.5	0.37775
28.6	0.376449
28.7	0.375152
28.8	0.373858
28.9	0.372571
29	0.371291
29.1	0.370017
29.2	0.36875
29.3	0.367493
29.4	0.366248
29.5	0.365008
29.6	0.363774
29.7	0.362545
29.8	0.361323
29.9	0.360107
30	0.358897
30.1	0.357689
30.2	0.356486
30.3	0.355286
30.4	0.35409
30.5	0.352903
30.6	0.351724
30.7	0.350554
30.8	0.34939
30.9	0.348234
31	0.347081
31.1	0.345931
31.2	0.344787
31.3	0.343646
31.4	0.342508
31.5	0.341372
31.6	0.340237
31.7	0.339102
31.8	0.337972
31.9	0.336846
32	0.335725
32.1	0.33461
32.2	0.3335
32.3	0.332399
32.4	0.331302
32.5	0.330208
32.6	0.329115
32.7	0.328022
32.8	0.326928
32.9	0.325829
33	0.324736
33.1	0.323649
33.2	0.32257
33.3	0.321499
33.4	0.320435
33.5	0.319374
33.6	0.318318
33.7	0.317272
33.8	0.316229
33.9	0.315194
34	0.314164
34.1	0.313143
34.2	0.312124
34.3	0.311106
34.4	0.310088
34.5	0.309067
34.6	0.308043
34.7	0.307017
34.8	0.305995
34.9	0.304981
35	0.303975
35.1	0.302975
35.2	0.301975
35.3	0.300976
35.4	0.29998
35.5	0.298989
35.6	0.298001
35.7	0.297019
35.8	0.29604
35.9	0.295066
36	0.294095
36.1	0.293128
36.2	0.292162
36.3	0.291199
36.4	0.29024
36.5	0.289286
36.6	0.288337
36.7	0.287395
36.8	0.286454
36.9	0.28551
37	0.284564
37.1	0.283615
37.2	0.28267
37.3	0.28173
37.4	0.280798
37.5	0.279873
37.6	0.278955
37.7	0.27804
37.8	0.277129
37.9	0.276221
38	0.275312
38.1	0.274404
38.2	0.273495
38.3	0.272589
38.4	0.271684
38.5	0.270782
38.6	0.269883
38.7	0.268992
38.8	0.268106
38.9	0.267221
39	0.266341
39.1	0.265462
39.2	0.264582
39.3	0.263703
39.4	0.26283
39.5	0.26196
39.6	0.26109
39.7	0.26022
39.8	0.259353
39.9	0.258497
40	0.257643
40.1	0.25679
40.2	0.255939
40.3	0.255092
40.4	0.254247
40.5	0.253403
40.6	0.252562
40.7	0.251723
40.8	0.250889
40.9	0.250057
41	0.24923
41.1	0.248411
41.2	0.247596
41.3	0.246784
41.4	0.245975
41.5	0.24517
41.6	0.24437
41.7	0.243577
41.8	0.242786
41.9	0.24199
42	0.241196
42.1	0.240406
42.2	0.239619
42.3	0.238834
42.4	0.238053
42.5	0.237272
42.6	0.236491
42.7	0.23571
42.8	0.23493
42.9	0.234152
43	0.233383
43.1	0.232621
43.2	0.231861
43.3	0.231107
43.4	0.230355
43.5	0.229609
43.6	0.228866
43.7	0.228124
43.8	0.227383
43.9	0.226647
44	0.225916
44.1	0.225189
44.2	0.224466
44.3	0.223743
44.4	0.223028
44.5	0.222317
44.6	0.221608
44.7	0.220899
44.8	0.220194
44.9	0.219493
45	0.218794
45.1	0.218101
45.2	0.21741
45.3	0.216719
45.4	0.216024
45.5	0.215328
45.6	0.214629
45.7	0.213927
45.8	0.213223
45.9	0.21252
46	0.211821
46.1	0.211125
46.2	0.210431
46.3	0.209733
46.4	0.209037
46.5	0.208347
46.6	0.207658
46.7	0.20697
46.8	0.206285
46.9	0.205604
47	0.204927
47.1	0.204256
47.2	0.203585
47.3	0.202922
47.4	0.202269
47.5	0.201625
47.6	0.200986
47.7	0.200346
47.8	0.199709
47.9	0.199073
48	0.198439
48.1	0.197805
48.2	0.19717
48.3	0.196534
48.4	0.195895
48.5	0.195258
48.6	0.194626
48.7	0.194001
48.8	0.193381
48.9	0.192763
49	0.192145
49.1	0.191533
49.2	0.190928
49.3	0.190326
49.4	0.189725
49.5	0.189122
49.6	0.188515
49.7	0.187902
49.8	0.18729
49.9	0.186677
50	0.18606
50.1	0.185445
50.2	0.184835
50.3	0.184228
50.4	0.183622
50.5	0.183015
50.6	0.182409
50.7	0.181803
50.8	0.181199
50.9	0.180598
51	0.179998
51.1	0.179405
51.2	0.178813
51.3	0.178221
51.4	0.177635
51.5	0.177056
51.6	0.176474
51.7	0.175886
51.8	0.175289
51.9	0.174694
52	0.1741
52.1	0.173508
52.2	0.172924
52.3	0.172343
52.4	0.171765
52.5	0.171189
52.6	0.170617
52.7	0.170045
52.8	0.169475
52.9	0.168905
53	0.168335
53.1	0.167771
53.2	0.16721
53.3	0.166654
53.4	0.166101
53.5	0.16555
53.6	0.165001
53.7	0.164457
53.8	0.163919
53.9	0.163383
54	0.162846
54.1	0.162308
54.2	0.161768
54.3	0.16123
54.4	0.160698
54.5	0.160173
54.6	0.159649
54.7	0.159124
54.8	0.158598
54.9	0.158069
55	0.157536
55.1	0.157
55.2	0.156462
55.3	0.155929
55.4	0.1554
55.5	0.154876
55.6	0.154353
55.7	0.153833
55.8	0.153316
55.9	0.1528
56	0.152287
56.1	0.151773
56.2	0.151259
56.3	0.150753
56.4	0.150249
56.5	0.149747
56.6	0.149252
56.7	0.148761
56.8	0.14828
56.9	0.147803
57	0.147333
57.1	0.146868
57.2	0.146406
57.3	0.145948
57.4	0.145497
57.5	0.145049
57.6	0.144602
57.7	0.144157
57.8	0.143709
57.9	0.143255
58	0.142804
58.1	0.142356
58.2	0.14191
58.3	0.141467
58.4	0.141027
58.5	0.14059
58.6	0.140157
58.7	0.139733
58.8	0.139311
58.9	0.138895
59	0.138486
59.1	0.138084
59.2	0.137685
59.3	0.137293
59.4	0.136905
59.5	0.13652
59.6	0.136135
59.7	0.135755
59.8	0.135373
59.9	0.13499
60	0.134609
60.1	0.134229
60.2	0.13385
60.3	0.133466
60.4	0.133081
60.5	0.132701
60.6	0.132322
60.7	0.13195
60.8	0.131583
60.9	0.131216
61	0.13085
61.1	0.130488
61.2	0.13013
61.3	0.129771
61.4	0.12941
61.5	0.129052
61.6	0.128694
61.7	0.128344
61.8	0.127996
61.9	0.127649
62	0.127303
62.1	0.126957
62.2	0.126613
62.3	0.126273
62.4	0.125938
62.5	0.125605
62.6	0.125274
62.7	0.124944
62.8	0.124609
62.9	0.124277
63	0.123941
63.1	0.123607
63.2	0.123273
63.3	0.122941
63.4	0.122612
63.5	0.122285
63.6	0.121959
63.7	0.121637
63.8	0.121314
63.9	0.120997
64	0.120683
64.1	0.120372
64.2	0.120063
64.3	0.119757
64.4	0.119453
64.5	0.119147
64.6	0.118836
64.7	0.118529
64.8	0.118227
64.9	0.117928
65	0.117628
65.1	0.117333
65.2	0.117045
65.3	0.116763
65.4	0.116485
65.5	0.116205
65.6	0.115923
65.7	0.115643
65.8	0.115361
65.9	0.11508
66	0.114794
66.1	0.114509
66.2	0.114224
66.3	0.113942
66.4	0.113659
66.5	0.113375
66.6	0.113092
66.7	0.112805
66.8	0.112517
66.9	0.112226
67	0.11194
67.1	0.111658
67.2	0.111378
67.3	0.111092
67.4	0.110801
67.5	0.110505
67.6	0.1102
67.7	0.109892
67.8	0.109583
67.9	0.109277
68	0.108972
68.1	0.108667
68.2	0.108367
68.3	0.108073
68.4	0.107784
68.5	0.107494
68.6	0.107207
68.7	0.106922
68.8	0.106637
68.9	0.106352
69	0.106062
69.1	0.10577
69.2	0.105471
69.3	0.105171
69.4	0.104871
69.5	0.104575
69.6	0.104284
69.7	0.103998
69.8	0.103714
69.9	0.103429
70	0.10314
70.1	0.10285
70.2	0.102559
70.3	0.102264
70.4	0.101965
70.5	0.101667
70.6	0.10137
70.7	0.101072
70.8	0.100778
70.9	0.10048
71	0.100184
71.1	0.0998858
71.2	0.0995911
71.3	0.0992971
71.4	0.0990055
71.5	0.0987168
71.6	0.0984321
71.7	0.0981474
71.8	0.0978593
71.9	0.0975733
72	0.0972871
72.1	0.097002
72.2	0.0967192
72.3	0.0964405
72.4	0.096165
72.5	0.095893
72.6	0.0956253
72.7	0.0953589
72.8	0.0950935
72.9	0.0948265
73	0.0945582
73.1	0.0942907
73.2	0.0940229
73.3	0.0937558
73.4	0.0934914
73.5	0.0932275
73.6	0.0929625
73.7	0.0926985
73.8	0.0924372
73.9	0.0921768
74	0.0919205
74.1	0.0916662
74.2	0.0914091
74.3	0.0911527
74.4	0.0908945
74.5	0.0906321
74.6	0.0903692
74.7	0.0901045
74.8	0.0898354
74.9	0.0895589
75	0.0892788
75.1	0.0890027
75.2	0.0887279
75.3	0.0884534
75.4	0.0881731
75.5	0.0878965
75.6	0.0876208
75.7	0.0873422
75.8	0.0870646
75.9	0.0867873
76	0.0865103
76.1	0.0862366
76.2	0.0859656
76.3	0.085697
76.4	0.0854205
76.5	0.0851401
76.6	0.0848621
76.7	0.0845835
76.8	0.084306
76.9	0.0840272
77	0.0837452
77.1	0.0834595
77.2	0.0831774
77.3	0.0828964
77.4	0.0826164
77.5	0.0823412
77.6	0.0820702
77.7	0.0817981
77.8	0.0815289
77.9	0.0812621
78	0.0809997
78.1	0.0807402
78.2	0.0804844
78.3	0.0802323
78.4	0.0799791
78.5	0.0797229
78.6	0.0794649
78.7	0.0792036
78.8	0.0789394
78.9	0.0786746
79	0.0784049
79.1	0.078132
79.2	0.0778613
79.3	0.0775958
79.4	0.0773329
79.5	0.0770769
79.6	0.0768243
79.7	0.0765719
79.8	0.076322
79.9	0.0760755
80	0.0758332
80.1	0.0755913
80.2	0.0753437
80.3	0.0750909
80.4	0.0748422
80.5	0.0745945
80.6	0.0743448
80.7	0.0740922
80.8	0.073841
80.9	0.0735914
81	0.0733378
81.1	0.0730794
81.2	0.0728185
81.3	0.0725617
81.4	0.0723059
81.5	0.0720515
81.6	0.0717961
81.7	0.0715359
81.8	0.0712714
81.9	0.0710054
82	0.0707371
82.1	0.0704761
82.2	0.0702183
82.3	0.0699599
82.4	0.0696981
82.5	0.0694364
82.6	0.069175
82.7	0.068917
82.8	0.0686619
82.9	0.0684122
83	0.0681675
83.1	0.0679239
83.2	0.067678
83.3	0.0674291
83.4	0.0671801
83.5	0.0669346
83.6	0.0666915
83.7	0.0664498
83.8	0.0662064
83.9	0.0659584
84	0.0657089
84.1	0.0654586
84.2	0.0652125
84.3	0.0649684
84.4	0.0647291
84.5	0.0644909
84.6	0.0642535
84.7	0.0640195
84.8	0.0637887
84.9	0.0635599
85	0.0633306
85.1	0.0631002
85.2	0.0628727
85.3	0.0626468
85.4	0.0624223
85.5	0.062198
85.6	0.0619773
85.7	0.0617572
85.8	0.0615348
85.9	0.061314
86	0.0610944
86.1	0.0608795
86.2	0.0606694
86.3	0.0604593
86.4	0.0602496
86.5	0.0600384
86.6	0.0598291
86.7	0.0596264
86.8	0.0594286
86.9	0.0592276
87	0.059028
87.1	0.0588277
87.2	0.0586265
87.3	0.0584261
87.4	0.058223
87.5	0.0580174
87.6	0.0578138
87.7	0.0576096
87.8	0.0574055
87.9	0.0572041
88	0.0570048
88.1	0.0568055
88.2	0.0566089
88.3	0.0564168
88.4	0.056226
88.5	0.0560404
88.6	0.0558557
88.7	0.0556686
88.8	0.0554821
88.9	0.055295
89	0.0551115
89.1	0.0549334
89.2	0.0547625
89.3	0.0545971
89.4	0.0544339
89.5	0.0542716
89.6	0.0541139
89.7	0.0539592
89.8	0.0538038
89.9	0.0536489
90	0.0534912
90.1	0.0533325
90.2	0.0531739
90.3	0.0530165
90.4	0.0528553
90.5	0.0526925
90.6	0.0525332
90.7	0.0523723
90.8	0.0522134
90.9	0.0520593
91	0.0519079
91.1	0.0517585
91.2	0.0516114
91.3	0.0514634
91.4	0.0513174
91.5	0.0511726
91.6	0.0510333
91.7	0.0508953
91.8	0.0507532
91.9	0.0506099
92	0.0504635
92.1	0.0503161
92.2	0.0501616
92.3	0.0499927
92.4	0.0498181
92.5	0.0496396
92.6	0.0494649
92.7	0.049299
92.8	0.0491364
92.9	0.0489744
93	0.0488135
93.1	0.0486567
93.2	0.0484972
93.3	0.0483377
93.4	0.0481777
93.5	0.0480139
93.6	0.0478476
93.7	0.0476793
93.8	0.0475123
93.9	0.047349
94	0.0471869
94.1	0.0470251
94.2	0.0468617
94.3	0.0466941
94.4	0.0465236
94.5	0.0463563
94.6	0.0461973
94.7	0.0460418
94.8	0.0458858
94.9	0.0457268
95	0.0455641
95.1	0.0454005
95.2	0.0452352
95.3	0.0450666
95.4	0.0448951
95.5	0.044725
95.6	0.0445601
95.7	0.0444003
95.8	0.0442431
95.9	0.0440861
96	0.0439291
96.1	0.0437732
96.2	0.043622
96.3	0.0434698
96.4	0.0433144
96.5	0.0431587
96.6	0.0429995
96.7	0.0428426
96.8	0.0426875
96.9	0.0425325
97	0.0423761
97.1	0.0422166
97.2	0.0420583
97.3	0.0419044
97.4	0.0417535
97.5	0.041595
97.6	0.0414326
97.7	0.0412657
97.8	0.0410974
97.9	0.040927
98	0.0407559
98.1	0.0405825
98.2	0.0404112
98.3	0.0402466
98.4	0.0400824
98.5	0.0399159
98.6	0.0397521
98.7	0.0395893
98.8	0.0394253
98.9	0.039256
99	0.0390857
99.1	0.038918
99.2	0.0387503
99.3	0.038584
99.4	0.0384177
99.5	0.0382523
99.6	0.0380919
99.7	0.0379359
99.8	0.0377757
99.9	0.0376177
100	0.0374617
100.1	0.0373063
100.2	0.0371518
100.3	0.0369945
100.4	0.036835
100.5	0.0366745
100.6	0.036515
100.7	0.0363584
100.8	0.0362022
100.9	0.0360448
101	0.0358905
101.1	0.035738
101.2	0.0355828
101.3	0.0354226
101.4	0.0352558
101.5	0.0350875
101.6	0.0349237
101.7	0.0347617
101.8	0.0345996
101.9	0.0344373
102	0.0342769
102.1	0.0341196
102.2	0.0339654
102.3	0.0338153
102.4	0.0336692
102.5	0.0335263
102.6	0.0333869
102.7	0.0332593
102.8	0.0331342
102.9	0.0330119
103	0.0328962
103.1	0.0327847
103.2	0.0326701
103.3	0.0325569
103.4	0.0324466
103.5	0.0323364
103.6	0.0322237
103.7	0.0321105
103.8	0.0319958
103.9	0.0318804
104	0.0317603
104.1	0.0316334
104.2	0.0315045
104.3	0.0313764
104.4	0.0312504
104.5	0.0311253
104.6	0.0309979
104.7	0.0308703
104.8	0.0307403
104.9	0.0306073
105	0.0304753
105.1	0.0303447
105.2	0.0302115
105.3	0.0300831
105.4	0.0299576
105.5	0.0298328
105.6	0.0297087
105.7	0.0295857
105.8	0.0294675
105.9	0.0293529
106	0.0292416
106.1	0.0291333
106.2	0.0290294
106.3	0.0289311
106.4	0.0288364
106.5	0.0287479
106.6	0.0286598
106.7	0.0285719
106.8	0.0284828
106.9	0.0283923
107	0.0283054
107.1	0.0282204
107.2	0.0281322
107.3	0.0280441
107.4	0.0279532
107.5	0.0278615
107.6	0.0277766
107.7	0.0276908
107.8	0.0276055
107.9	0.0275177
108	0.0274291
108.1	0.0273444
108.2	0.0272626
108.3	0.0271797
108.4	0.027099
108.5	0.0270215
108.6	0.0269452
108.7	0.0268684
108.8	0.0267922
108.9	0.0267218
109	0.0266552
109.1	0.0265877
109.2	0.0265231
109.3	0.0264607
109.4	0.0264002
109.5	0.0263404
109.6	0.0262782
109.7	0.0262174
109.8	0.0261563
109.9	0.0260909
110	0.0260201
110.1	0.025948
110.2	0.0258778
110.3	0.0258089
110.4	0.0257433
110.5	0.0256761
110.6	0.0256093
110.7	0.0255457
110.8	0.0254869
110.9	0.0254324
111	0.0253786
111.1	0.0253225
111.2	0.0252636
111.3	0.0252098
111.4	0.0251591
111.5	0.0251095
111.6	0.0250579
111.7	0.0250018
111.8	0.0249394
111.9	0.0248721
112	0.0248026
112.1	0.0247309
112.2	0.0246577
112.3	0.0245834
112.4	0.024501
112.5	0.0244112
112.6	0.0243206
112.7	0.0242348
112.8	0.0241484
112.9	0.0240563
113	0.0239635
113.1	0.0238749
113.2	0.0237827
113.3	0.0236839
113.4	0.0235785
113.5	0.0234715
113.6	0.0233626
113.7	0.0232523
113.8	0.02314
113.9	0.023031
114	0.0229195
114.1	0.022809
114.2	0.0226976
114.3	0.0225881
114.4	0.0224838
114.5	0.0223843
114.6	0.0222928
114.7	0.0222027
114.8	0.0221144
114.9	0.0220281
115	0.021941
115.1	0.0218517
115.2	0.0217561
115.3	0.0216582
115.4	0.0215592
115.5	0.0214585
115.6	0.0213606
115.7	0.0212595
115.8	0.0211578
115.9	0.0210577
116	0.0209634
116.1	0.0208726
116.2	0.0207815
116.3	0.0206859
116.4	0.0205866
116.5	0.0204857
116.6	0.0203854
116.7	0.0202825
116.8	0.0201744
116.9	0.0200673
117	0.0199596
117.1	0.0198522
117.2	0.0197488
117.3	0.0196536
117.4	0.0195621
117.5	0.0194715
117.6	0.0193821
117.7	0.0192902
117.8	0.019195
117.9	0.0191009
118	0.0190023
118.1	0.0188966
118.2	0.0187863
118.3	0.018677
118.4	0.0185716
118.5	0.018469
118.6	0.0183721
118.7	0.0182833
118.8	0.018196
118.9	0.0181138
119	0.0180398
119.1	0.0179728
119.2	0.0179092
119.3	0.0178477
119.4	0.0177915
119.5	0.0177329
119.6	0.0176739
119.7	0.0176158
119.8	0.017554
119.9	0.0174832
120	0.0174095
120.1	0.0173334
120.2	0.0172544
120.3	0.0171732
120.4	0.0170914
120.5	0.0170135
120.6	0.0169435
120.7	0.0168796
120.8	0.0168174
120.9	0.0167584
121	0.016697
121.1	0.0166329
121.2	0.0165685
121.3	0.0165018
121.4	0.0164389
121.5	0.0163781
121.6	0.0163166
121.7	0.0162516
121.8	0.0161829
121.9	0.0161165
122	0.0160502
122.1	0.0159816
122.2	0.0159127
122.3	0.0158431
122.4	0.0157749
122.5	0.0157114
122.6	0.0156445
122.7	0.015579
122.8	0.015515
122.9	0.0154478
123	0.0153776
123.1	0.0153033
123.2	0.0152263
123.3	0.0151503
123.4	0.0150759
123.5	0.0150009
123.6	0.0149205
123.7	0.0148377
123.8	0.0147507
123.9	0.0146619
124	0.0145781
124.1	0.0144969
124.2	0.0144157
124.3	0.0143373
124.4	0.0142634
124.5	0.0141895
124.6	0.0141133
124.7	0.0140322
124.8	0.0139506
124.9	0.0138713
125	0.0137902
125.1	0.0137119
125.2	0.0136343
125.3	0.0135578
125.4	0.0134795
125.5	0.0133968
125.6	0.013312
125.7	0.013224
125.8	0.0131362
125.9	0.0130455
126	0.012956
126.1	0.0128673
126.2	0.0127763
126.3	0.0126809
126.4	0.0125882
126.5	0.0124929
126.6	0.0123988
126.7	0.0123085
126.8	0.01222
126.9	0.0121312
127	0.0120442
127.1	0.0119577
127.2	0.0118759
127.3	0.0117965
127.4	0.0117145
127.5	0.0116293
127.6	0.0115435
127.7	0.0114618
127.8	0.0113866
127.9	0.0113144
128	0.011242
128.1	0.0111727
128.2	0.0111053
128.3	0.0110355
128.4	0.0109561
128.5	0.0108732
128.6	0.0107929
128.7	0.0107151
128.8	0.0106395
128.9	0.0105664
129	0.0104949
129.1	0.0104223
129.2	0.0103448
129.3	0.0102651
129.4	0.0101853
129.5	0.0101048
129.6	0.0100261
129.7	0.0099461
129.8	0.0098639
129.9	0.00978534
130	0.00970992
130.1	0.00964201
130.2	0.00957996
130.3	0.00951981
130.4	0.00945652
130.5	0.00939154
130.6	0.00932318
130.7	0.00925321
130.8	0.00918013
130.9	0.00910149
131	0.00902305
131.1	0.00895279
131.2	0.00888601
131.3	0.00882462
131.4	0.00876548
131.5	0.00870718
131.6	0.00864991
131.7	0.00859402
131.8	0.00853875
131.9	0.00848718
132	0.00843258
132.1	0.0083782
132.2	0.00831954
132.3	0.00825761
132.4	0.00818689
132.5	0.00810912
132.6	0.00802858
132.7	0.00794672
132.8	0.00786282
132.9	0.00777405
133	0.00768542
133.1	0.00760155
133.2	0.00751785
133.3	0.00743423
133.4	0.00735321
133.5	0.00727195
133.6	0.00718892
133.7	0.00710718
133.8	0.00702968
133.9	0.00695575
134	0.00688018
134.1	0.00680847
134.2	0.00673964
134.3	0.00667406
134.4	0.00660568
134.5	0.00654183
134.6	0.00648023
134.7	0.006419
134.8	0.0063595
134.9	0.0063022
135	0.00623916
135.1	0.00617421
135.2	0.00610622
135.3	0.00604456
135.4	0.00598382
135.5	0.00592242
135.6	0.00586319
135.7	0.00580733
135.8	0.00575882
135.9	0.00571463
136	0.00567224
136.1	0.00563397
136.2	0.00559641
136.3	0.00555516
136.4	0.00551498
136.5	0.0054748
136.6	0.00543515
136.7	0.00540057
136.8	0.00536742
136.9	0.00534001
137	0.00531386
137.1	0.00528738
137.2	0.00526617
137.3	0.00525123
137.4	0.00523289
137.5	0.00521212
137.6	0.00518675
137.7	0.00516553
137.8	0.0051456
137.9	0.00512465
138	0.00510411
138.1	0.00508632
138.2	0.00507113
138.3	0.00505553
138.4	0.00504603
138.5	0.005042
138.6	0.00503788
