LagTime	Correlation

0	2.35956
0.1	2.35454
0.2	2.34705
0.3	2.33897
0.4	2.3308
0.5	2.32263
0.6	2.31452
0.7	2.30647
0.8	2.29847
0.9	2.29054
1	2.28267
1.1	2.27485
1.2	2.26709
1.3	2.25939
1.4	2.25175
1.5	2.24416
1.6	2.23663
1.7	2.22915
1.8	2.22173
1.9	2.21436
2	2.20704
2.1	2.19978
2.2	2.19256
2.3	2.18539
2.4	2.17828
2.5	2.17121
2.6	2.16419
2.7	2.15722
2.8	2.15031
2.9	2.14343
3	2.13661
3.1	2.12982
3.2	2.12308
3.3	2.11638
3.4	2.10972
3.5	2.10311
3.6	2.09653
3.7	2.09
3.8	2.08352
3.9	2.07707
4	2.07066
4.1	2.06429
4.2	2.05797
4.3	2.05167
4.4	2.04542
4.5	2.03921
4.6	2.03304
4.7	2.02691
4.8	2.02082
4.9	2.01476
5	2.00874
5.1	2.00276
5.2	1.99681
5.3	1.99089
5.4	1.985
5.5	1.97914
5.6	1.97332
5.7	1.96753
5.8	1.96178
5.9	1.95606
6	1.95037
6.1	1.94472
6.2	1.9391
6.3	1.93351
6.4	1.92795
6.5	1.92242
6.6	1.91692
6.7	1.91146
6.8	1.90603
6.9	1.90063
7	1.89527
7.1	1.88994
7.2	1.88464
7.3	1.87937
7.4	1.87413
7.5	1.86891
7.6	1.86372
7.7	1.85856
7.8	1.85342
7.9	1.84832
8	1.84324
8.1	1.83819
8.2	1.83316
8.3	1.82817
8.4	1.8232
8.5	1.81827
8.6	1.81336
8.7	1.80848
8.8	1.80363
8.9	1.7988
9	1.79398
9.1	1.78919
9.2	1.78442
9.3	1.77968
9.4	1.77496
9.5	1.77027
9.6	1.7656
9.7	1.76096
9.8	1.75634
9.9	1.75173
10	1.74715
10.1	1.7426
10.2	1.73805
10.3	1.73353
10.4	1.72901
10.5	1.72452
10.6	1.72004
10.7	1.71558
10.8	1.71114
10.9	1.70672
11	1.70233
11.1	1.69795
11.2	1.69358
11.3	1.68924
11.4	1.68492
11.5	1.68062
11.6	1.67635
11.7	1.6721
11.8	1.66787
11.9	1.66367
12	1.65948
12.1	1.6553
12.2	1.65114
12.3	1.647
12.4	1.64287
12.5	1.63875
12.6	1.63466
12.7	1.63058
12.8	1.62652
12.9	1.62248
13	1.61846
13.1	1.61446
13.2	1.61048
13.3	1.60651
13.4	1.60256
13.5	1.59862
13.6	1.5947
13.7	1.59079
13.8	1.5869
13.9	1.58303
14	1.57918
14.1	1.57534
14.2	1.57152
14.3	1.56771
14.4	1.56392
14.5	1.56014
14.6	1.55638
14.7	1.55263
14.8	1.54889
14.9	1.54515
15	1.54143
15.1	1.53771
15.2	1.53401
15.3	1.53032
15.4	1.52665
15.5	1.52299
15.6	1.51934
15.7	1.5157
15.8	1.51208
15.9	1.50848
16	1.50489
16.1	1.50131
16.2	1.49775
16.3	1.49421
16.4	1.49068
16.5	1.48716
16.6	1.48366
16.7	1.48017
16.8	1.4767
16.9	1.47323
17	1.46979
17.1	1.46635
17.2	1.46292
17.3	1.45951
17.4	1.4561
17.5	1.45271
17.6	1.44932
17.7	1.44595
17.8	1.44259
17.9	1.43924
18	1.4359
18.1	1.43257
18.2	1.42925
18.3	1.42594
18.4	1.42265
18.5	1.41936
18.6	1.4161
18.7	1.41284
18.8	1.40959
18.9	1.40634
19	1.40311
19.1	1.39989
19.2	1.39668
19.3	1.39348
19.4	1.3903
19.5	1.38713
19.6	1.38398
19.7	1.38084
19.8	1.37771
19.9	1.37459
20	1.37149
20.1	1.36839
20.2	1.3653
20.3	1.36223
20.4	1.35916
20.5	1.35609
20.6	1.35304
20.7	1.34999
20.8	1.34695
20.9	1.34391
21	1.34088
21.1	1.33787
21.2	1.33487
21.3	1.33187
21.4	1.32889
21.5	1.32591
21.6	1.32295
21.7	1.32
21.8	1.31706
21.9	1.31413
22	1.31121
22.1	1.30832
22.2	1.30543
22.3	1.30256
22.4	1.2997
22.5	1.29685
22.6	1.29401
22.7	1.29118
22.8	1.28836
22.9	1.28554
23	1.28273
23.1	1.27993
23.2	1.27714
23.3	1.27437
23.4	1.27161
23.5	1.26886
23.6	1.26612
23.7	1.26338
23.8	1.26065
23.9	1.25792
24	1.25521
24.1	1.25249
24.2	1.24979
24.3	1.24709
24.4	1.24439
24.5	1.24171
24.6	1.23904
24.7	1.23637
24.8	1.23372
24.9	1.23106
25	1.22842
25.1	1.22579
25.2	1.22316
25.3	1.22053
25.4	1.21792
25.5	1.21532
25.6	1.21272
25.7	1.21014
25.8	1.20755
25.9	1.20498
26	1.20241
26.1	1.19985
26.2	1.1973
26.3	1.19477
26.4	1.19224
26.5	1.18971
26.6	1.18718
26.7	1.18466
26.8	1.18214
26.9	1.17963
27	1.17712
27.1	1.17462
27.2	1.17213
27.3	1.16963
27.4	1.16715
27.5	1.16467
27.6	1.1622
27.7	1.15973
27.8	1.15728
27.9	1.15483
28	1.1524
28.1	1.14997
28.2	1.14754
28.3	1.14512
28.4	1.1427
28.5	1.1403
28.6	1.13789
28.7	1.13549
28.8	1.1331
28.9	1.13071
29	1.12833
29.1	1.12596
29.2	1.12359
29.3	1.12123
29.4	1.11887
29.5	1.11651
29.6	1.11417
29.7	1.11183
29.8	1.10949
29.9	1.10716
30	1.10483
30.1	1.10251
30.2	1.10018
30.3	1.09786
30.4	1.09555
30.5	1.09325
30.6	1.09095
30.7	1.08866
30.8	1.08637
30.9	1.08409
31	1.08182
31.1	1.07957
31.2	1.07732
31.3	1.07509
31.4	1.07287
31.5	1.07064
31.6	1.06843
31.7	1.06622
31.8	1.06401
31.9	1.06181
32	1.0596
32.1	1.05741
32.2	1.05521
32.3	1.05303
32.4	1.05085
32.5	1.04868
32.6	1.04651
32.7	1.04434
32.8	1.04218
32.9	1.04001
33	1.03784
33.1	1.03567
33.2	1.0335
33.3	1.03134
33.4	1.02918
33.5	1.02701
33.6	1.02485
33.7	1.02269
33.8	1.02053
33.9	1.01837
34	1.01622
34.1	1.01408
34.2	1.01193
34.3	1.00979
34.4	1.00766
34.5	1.00553
34.6	1.00341
34.7	1.0013
34.8	0.999193
34.9	0.997082
35	0.994977
35.1	0.992877
35.2	0.990779
35.3	0.988681
35.4	0.98659
35.5	0.984506
35.6	0.982431
35.7	0.980363
35.8	0.978302
35.9	0.976254
36	0.974215
36.1	0.972181
36.2	0.970155
36.3	0.96814
36.4	0.966128
36.5	0.964115
36.6	0.962102
36.7	0.960087
36.8	0.958071
36.9	0.95606
37	0.954055
37.1	0.952055
37.2	0.950061
37.3	0.948072
37.4	0.94609
37.5	0.944119
37.6	0.942159
37.7	0.940209
37.8	0.938266
37.9	0.936333
38	0.934401
38.1	0.932467
38.2	0.930535
38.3	0.928609
38.4	0.926687
38.5	0.924769
38.6	0.922855
38.7	0.920943
38.8	0.919033
38.9	0.91713
39	0.915229
39.1	0.913328
39.2	0.911425
39.3	0.909526
39.4	0.907633
39.5	0.905741
39.6	0.903845
39.7	0.901951
39.8	0.900056
39.9	0.898165
40	0.896279
40.1	0.894399
40.2	0.892522
40.3	0.89065
40.4	0.888779
40.5	0.886907
40.6	0.885037
40.7	0.883173
40.8	0.881314
40.9	0.879461
41	0.877616
41.1	0.875777
41.2	0.873946
41.3	0.87212
41.4	0.870308
41.5	0.868507
41.6	0.86671
41.7	0.864916
41.8	0.863128
41.9	0.861343
42	0.859562
42.1	0.857786
42.2	0.856015
42.3	0.85425
42.4	0.852489
42.5	0.850728
42.6	0.848963
42.7	0.847197
42.8	0.845428
42.9	0.843661
43	0.841902
43.1	0.840151
43.2	0.838404
43.3	0.836657
43.4	0.834907
43.5	0.833161
43.6	0.831423
43.7	0.829694
43.8	0.827968
43.9	0.826248
44	0.824534
44.1	0.822824
44.2	0.821121
44.3	0.819422
44.4	0.817724
44.5	0.816027
44.6	0.81433
44.7	0.812635
44.8	0.810941
44.9	0.809248
45	0.807554
45.1	0.805859
45.2	0.804162
45.3	0.802468
45.4	0.800776
45.5	0.799087
45.6	0.7974
45.7	0.795718
45.8	0.794043
45.9	0.792375
46	0.790713
46.1	0.789052
46.2	0.787396
46.3	0.785745
46.4	0.784101
46.5	0.782468
46.6	0.780842
46.7	0.779223
46.8	0.77761
46.9	0.775998
47	0.774388
47.1	0.772776
47.2	0.771162
47.3	0.769548
47.4	0.767937
47.5	0.766333
47.6	0.764738
47.7	0.763146
47.8	0.761552
47.9	0.759951
48	0.758353
48.1	0.756758
48.2	0.755164
48.3	0.753575
48.4	0.751992
48.5	0.750415
48.6	0.748838
48.7	0.747265
48.8	0.745694
48.9	0.744123
49	0.742557
49.1	0.740996
49.2	0.739435
49.3	0.737877
49.4	0.736321
49.5	0.73477
49.6	0.733223
49.7	0.731678
49.8	0.730136
49.9	0.728601
50	0.727072
50.1	0.725549
50.2	0.724031
50.3	0.722517
50.4	0.721007
50.5	0.719502
50.6	0.718002
50.7	0.716507
50.8	0.715017
50.9	0.713531
51	0.712051
51.1	0.710572
51.2	0.709091
51.3	0.707613
51.4	0.706136
51.5	0.704659
51.6	0.703187
51.7	0.701722
51.8	0.700261
51.9	0.698802
52	0.697345
52.1	0.695889
52.2	0.694437
52.3	0.692989
52.4	0.691546
52.5	0.690107
52.6	0.688667
52.7	0.687224
52.8	0.685773
52.9	0.684311
53	0.682843
53.1	0.68137
53.2	0.679898
53.3	0.67843
53.4	0.676966
53.5	0.675511
53.6	0.674063
53.7	0.67262
53.8	0.671185
53.9	0.669755
54	0.668324
54.1	0.666895
54.2	0.665471
54.3	0.664048
54.4	0.662633
54.5	0.661224
54.6	0.659824
54.7	0.658434
54.8	0.657048
54.9	0.655666
55	0.654288
55.1	0.652919
55.2	0.651557
55.3	0.6502
55.4	0.648851
55.5	0.647501
55.6	0.646159
55.7	0.644818
55.8	0.64348
55.9	0.642142
56	0.640804
56.1	0.639469
56.2	0.638137
56.3	0.63681
56.4	0.635483
56.5	0.634159
56.6	0.632832
56.7	0.631504
56.8	0.630178
56.9	0.628854
57	0.627534
57.1	0.62622
57.2	0.624908
57.3	0.623601
57.4	0.622298
57.5	0.620995
57.6	0.619697
57.7	0.618403
57.8	0.617106
57.9	0.615808
58	0.614515
58.1	0.613226
58.2	0.611938
58.3	0.610654
58.4	0.609376
58.5	0.608107
58.6	0.606846
58.7	0.605592
58.8	0.604341
58.9	0.6031
59	0.601863
59.1	0.600629
59.2	0.599396
59.3	0.598168
59.4	0.596944
59.5	0.595723
59.6	0.594504
59.7	0.593285
59.8	0.592069
59.9	0.590854
60	0.589645
60.1	0.588442
60.2	0.587244
60.3	0.58605
60.4	0.584857
60.5	0.583664
60.6	0.582472
60.7	0.581284
60.8	0.580092
60.9	0.578899
61	0.577709
61.1	0.57652
61.2	0.575332
61.3	0.574143
61.4	0.572957
61.5	0.571775
61.6	0.570596
61.7	0.569419
61.8	0.568251
61.9	0.567087
62	0.565926
62.1	0.564771
62.2	0.56362
62.3	0.562473
62.4	0.561336
62.5	0.560207
62.6	0.559084
62.7	0.557959
62.8	0.556829
62.9	0.555697
63	0.554565
63.1	0.553435
63.2	0.552304
63.3	0.551176
63.4	0.550047
63.5	0.548922
63.6	0.547801
63.7	0.546685
63.8	0.545573
63.9	0.544461
64	0.543352
64.1	0.542248
64.2	0.541149
64.3	0.540051
64.4	0.538951
64.5	0.537848
64.6	0.536744
64.7	0.535644
64.8	0.534549
64.9	0.533455
65	0.532362
65.1	0.531273
65.2	0.530187
65.3	0.529105
65.4	0.528024
65.5	0.526948
65.6	0.525871
65.7	0.524794
65.8	0.523719
65.9	0.522649
66	0.521583
66.1	0.520522
66.2	0.519457
66.3	0.51839
66.4	0.517321
66.5	0.516252
66.6	0.515181
66.7	0.514112
66.8	0.513046
66.9	0.511981
67	0.510921
67.1	0.509869
67.2	0.508821
67.3	0.507771
67.4	0.50672
67.5	0.505666
67.6	0.504609
67.7	0.503558
67.8	0.502513
67.9	0.501473
68	0.500433
68.1	0.499398
68.2	0.498368
68.3	0.497337
68.4	0.496306
68.5	0.495278
68.6	0.494257
68.7	0.493237
68.8	0.492219
68.9	0.4912
69	0.490179
69.1	0.489156
69.2	0.488136
69.3	0.48712
69.4	0.486101
69.5	0.485083
69.6	0.484068
69.7	0.483055
69.8	0.482046
69.9	0.481037
70	0.480028
70.1	0.479018
70.2	0.478005
70.3	0.476989
70.4	0.475974
70.5	0.47496
70.6	0.473948
70.7	0.472935
70.8	0.471919
70.9	0.470903
71	0.469889
71.1	0.468869
71.2	0.46785
71.3	0.466836
71.4	0.465829
71.5	0.464826
71.6	0.463823
71.7	0.462822
71.8	0.461826
71.9	0.460837
72	0.459853
72.1	0.458877
72.2	0.457905
72.3	0.456931
72.4	0.455954
72.5	0.454975
72.6	0.453998
72.7	0.453026
72.8	0.452058
72.9	0.451095
73	0.450139
73.1	0.449188
73.2	0.448239
73.3	0.447291
73.4	0.446341
73.5	0.445384
73.6	0.444421
73.7	0.443458
73.8	0.4425
73.9	0.441546
74	0.4406
74.1	0.439662
74.2	0.43872
74.3	0.437779
74.4	0.436836
74.5	0.435894
74.6	0.434951
74.7	0.434006
74.8	0.433063
74.9	0.43212
75	0.431181
75.1	0.430249
75.2	0.429318
75.3	0.428391
75.4	0.427466
75.5	0.426549
75.6	0.425636
75.7	0.424722
75.8	0.423814
75.9	0.422911
76	0.422012
76.1	0.421117
76.2	0.420225
76.3	0.419334
76.4	0.41844
76.5	0.41755
76.6	0.416662
76.7	0.415776
76.8	0.41489
76.9	0.414007
77	0.413131
77.1	0.412262
77.2	0.411401
77.3	0.410539
77.4	0.409673
77.5	0.408799
77.6	0.407923
77.7	0.407046
77.8	0.406167
77.9	0.405287
78	0.404408
78.1	0.403528
78.2	0.402643
78.3	0.401759
78.4	0.400877
78.5	0.400004
78.6	0.399133
78.7	0.398261
78.8	0.397386
78.9	0.396517
79	0.395652
79.1	0.394786
79.2	0.393921
79.3	0.393056
79.4	0.392195
79.5	0.391335
79.6	0.390475
79.7	0.38962
79.8	0.388764
79.9	0.387909
80	0.387051
80.1	0.386189
80.2	0.385331
80.3	0.384477
80.4	0.383625
80.5	0.382777
80.6	0.38194
80.7	0.38111
80.8	0.380286
80.9	0.379467
81	0.378649
81.1	0.377832
81.2	0.377016
81.3	0.376198
81.4	0.375375
81.5	0.374552
81.6	0.37373
81.7	0.372913
81.8	0.372096
81.9	0.371283
82	0.370472
82.1	0.369666
82.2	0.368861
82.3	0.368062
82.4	0.367268
82.5	0.366481
82.6	0.3657
82.7	0.364925
82.8	0.364148
82.9	0.363377
83	0.362613
83.1	0.361854
83.2	0.361101
83.3	0.360355
83.4	0.359617
83.5	0.358882
83.6	0.358149
83.7	0.357417
83.8	0.356686
83.9	0.35596
84	0.35524
84.1	0.354523
84.2	0.353805
84.3	0.353091
84.4	0.352376
84.5	0.351664
84.6	0.350957
84.7	0.350255
84.8	0.34956
84.9	0.348872
85	0.348189
85.1	0.347504
85.2	0.346813
85.3	0.346125
85.4	0.345439
85.5	0.344756
85.6	0.344072
85.7	0.343381
85.8	0.342685
85.9	0.341987
86	0.341292
86.1	0.340597
86.2	0.339907
86.3	0.339222
86.4	0.338544
86.5	0.337867
86.6	0.337193
86.7	0.336525
86.8	0.335857
86.9	0.33519
87	0.334527
87.1	0.333865
87.2	0.333207
87.3	0.332542
87.4	0.331876
87.5	0.331208
87.6	0.330544
87.7	0.32988
87.8	0.329217
87.9	0.328557
88	0.327897
88.1	0.327235
88.2	0.326574
88.3	0.325912
88.4	0.325254
88.5	0.324596
88.6	0.323938
88.7	0.32328
88.8	0.322619
88.9	0.321955
89	0.32129
89.1	0.320626
89.2	0.319959
89.3	0.319296
89.4	0.318639
89.5	0.317979
89.6	0.31732
89.7	0.316661
89.8	0.316004
89.9	0.315349
90	0.314695
90.1	0.314047
90.2	0.313401
90.3	0.312755
90.4	0.312112
90.5	0.31147
90.6	0.310837
90.7	0.310208
90.8	0.309584
90.9	0.308962
91	0.308344
91.1	0.307726
91.2	0.307103
91.3	0.306477
91.4	0.305851
91.5	0.305226
91.6	0.304598
91.7	0.303971
91.8	0.303343
91.9	0.302713
92	0.302088
92.1	0.301469
92.2	0.300854
92.3	0.300236
92.4	0.299616
92.5	0.298993
92.6	0.298367
92.7	0.297742
92.8	0.29712
92.9	0.296502
93	0.295888
93.1	0.295279
93.2	0.294672
93.3	0.294068
93.4	0.293465
93.5	0.292865
93.6	0.292268
93.7	0.291674
93.8	0.291083
93.9	0.29049
94	0.289901
94.1	0.289309
94.2	0.288712
94.3	0.288111
94.4	0.287511
94.5	0.28691
94.6	0.286312
94.7	0.285719
94.8	0.285132
94.9	0.28455
95	0.283973
95.1	0.283397
95.2	0.282824
95.3	0.282254
95.4	0.281686
95.5	0.281121
95.6	0.280563
95.7	0.280006
95.8	0.279449
95.9	0.278892
96	0.278337
96.1	0.277791
96.2	0.277253
96.3	0.276719
96.4	0.276184
96.5	0.275648
96.6	0.275116
96.7	0.274588
96.8	0.274062
96.9	0.273536
97	0.273014
97.1	0.272492
97.2	0.271976
97.3	0.271458
97.4	0.27094
97.5	0.270421
97.6	0.269902
97.7	0.269385
97.8	0.26887
97.9	0.268357
98	0.26785
98.1	0.267349
98.2	0.266848
98.3	0.266349
98.4	0.265845
98.5	0.265344
98.6	0.264846
98.7	0.264349
98.8	0.263851
98.9	0.263352
99	0.26285
99.1	0.262344
99.2	0.261833
99.3	0.26132
99.4	0.260809
99.5	0.260296
99.6	0.259783
99.7	0.259265
99.8	0.258743
99.9	0.258217
100	0.257691
100.1	0.257166
100.2	0.256642
100.3	0.256114
100.4	0.25558
100.5	0.255042
100.6	0.254499
100.7	0.253955
100.8	0.253413
100.9	0.252875
101	0.252337
101.1	0.251801
101.2	0.251265
101.3	0.250733
101.4	0.250208
101.5	0.24969
101.6	0.249177
101.7	0.248667
101.8	0.248158
101.9	0.247647
102	0.247136
102.1	0.246631
102.2	0.246129
102.3	0.245628
102.4	0.245128
102.5	0.244631
102.6	0.24413
102.7	0.243626
102.8	0.243122
102.9	0.242622
103	0.242123
103.1	0.241628
103.2	0.241138
103.3	0.240651
103.4	0.240167
103.5	0.239691
103.6	0.239218
103.7	0.238749
103.8	0.238278
103.9	0.23781
104	0.237344
104.1	0.236877
104.2	0.236408
104.3	0.235942
104.4	0.235477
104.5	0.235007
104.6	0.234542
104.7	0.234086
104.8	0.233635
104.9	0.23318
105	0.232721
105.1	0.232261
105.2	0.231797
105.3	0.231334
105.4	0.230869
105.5	0.230403
105.6	0.229944
105.7	0.229491
105.8	0.229039
105.9	0.228589
106	0.228137
106.1	0.227683
106.2	0.227225
106.3	0.226763
106.4	0.226301
106.5	0.225836
106.6	0.225372
106.7	0.22491
106.8	0.22445
106.9	0.223988
107	0.223527
107.1	0.223068
107.2	0.222615
107.3	0.222165
107.4	0.221714
107.5	0.221264
107.6	0.220813
107.7	0.220361
107.8	0.219905
107.9	0.219447
108	0.218989
108.1	0.218533
108.2	0.218082
108.3	0.217634
108.4	0.217188
108.5	0.216747
108.6	0.216307
108.7	0.215865
108.8	0.215422
108.9	0.214981
109	0.214542
109.1	0.214102
109.2	0.213657
109.3	0.213212
109.4	0.212767
109.5	0.212322
109.6	0.211882
109.7	0.211448
109.8	0.211022
109.9	0.210595
110	0.210169
110.1	0.209746
110.2	0.209326
110.3	0.208912
110.4	0.208497
110.5	0.208077
110.6	0.207657
110.7	0.207237
110.8	0.206818
110.9	0.2064
111	0.205986
111.1	0.205576
111.2	0.205168
111.3	0.204764
111.4	0.204363
111.5	0.203968
111.6	0.203569
111.7	0.203165
111.8	0.202763
111.9	0.202358
112	0.201952
112.1	0.201545
112.2	0.201137
112.3	0.200729
112.4	0.200321
112.5	0.199909
112.6	0.199495
112.7	0.199079
112.8	0.198665
112.9	0.198248
113	0.197832
113.1	0.19742
113.2	0.197009
113.3	0.196597
113.4	0.19618
113.5	0.195761
113.6	0.195345
113.7	0.194926
113.8	0.194504
113.9	0.19408
114	0.193655
114.1	0.193231
114.2	0.192807
114.3	0.192384
114.4	0.191958
114.5	0.191535
114.6	0.191116
114.7	0.190698
114.8	0.190285
114.9	0.189875
115	0.189463
115.1	0.189054
115.2	0.188649
115.3	0.188245
115.4	0.187846
115.5	0.187453
115.6	0.187062
115.7	0.186673
115.8	0.186283
115.9	0.185889
116	0.185494
116.1	0.185103
116.2	0.184719
116.3	0.184342
116.4	0.183969
116.5	0.183595
116.6	0.183219
116.7	0.182844
116.8	0.182465
116.9	0.182088
117	0.181715
117.1	0.181347
117.2	0.180989
117.3	0.180632
117.4	0.180274
117.5	0.179916
117.6	0.179558
117.7	0.179196
117.8	0.178834
117.9	0.178473
118	0.17811
118.1	0.177745
118.2	0.17738
118.3	0.17702
118.4	0.176663
118.5	0.176307
118.6	0.175953
118.7	0.175601
118.8	0.175253
118.9	0.17491
119	0.174569
119.1	0.17423
119.2	0.173897
119.3	0.173565
119.4	0.173235
119.5	0.172906
119.6	0.172579
119.7	0.172251
119.8	0.171921
119.9	0.171592
120	0.171259
120.1	0.17092
120.2	0.170576
120.3	0.170228
120.4	0.169881
120.5	0.169538
120.6	0.169205
120.7	0.168873
120.8	0.168539
120.9	0.168207
121	0.167876
121.1	0.167543
121.2	0.167208
121.3	0.166874
121.4	0.166539
121.5	0.16621
121.6	0.165883
121.7	0.165557
121.8	0.165233
121.9	0.164913
122	0.164598
122.1	0.164286
122.2	0.163979
122.3	0.163672
122.4	0.163363
122.5	0.163054
122.6	0.162746
122.7	0.162441
122.8	0.162136
122.9	0.161836
123	0.161535
123.1	0.161235
123.2	0.160934
123.3	0.160632
123.4	0.160332
123.5	0.160035
123.6	0.15974
123.7	0.159442
123.8	0.159151
123.9	0.158867
124	0.158583
124.1	0.158297
124.2	0.15801
124.3	0.157729
124.4	0.157451
124.5	0.15717
124.6	0.156888
124.7	0.156607
124.8	0.156323
124.9	0.156037
125	0.155745
125.1	0.155453
125.2	0.155162
125.3	0.154868
125.4	0.15457
125.5	0.15427
125.6	0.153967
125.7	0.15367
125.8	0.15338
125.9	0.1531
126	0.152823
126.1	0.152547
126.2	0.15227
126.3	0.151995
126.4	0.151722
126.5	0.151444
126.6	0.151163
126.7	0.150881
126.8	0.1506
126.9	0.150319
127	0.150036
127.1	0.149754
127.2	0.149471
127.3	0.149184
127.4	0.148895
127.5	0.148606
127.6	0.148317
127.7	0.148023
127.8	0.147727
127.9	0.147429
128	0.147132
128.1	0.146836
128.2	0.146542
128.3	0.146248
128.4	0.14595
128.5	0.145648
128.6	0.145348
128.7	0.14505
128.8	0.144755
128.9	0.14446
129	0.144166
129.1	0.143878
129.2	0.143592
129.3	0.143305
129.4	0.143017
129.5	0.142726
129.6	0.142435
129.7	0.14214
129.8	0.14184
129.9	0.141539
130	0.141235
130.1	0.14093
130.2	0.140621
130.3	0.140313
130.4	0.140005
130.5	0.139702
130.6	0.139405
130.7	0.139112
130.8	0.138817
130.9	0.138518
131	0.13822
131.1	0.137922
131.2	0.137628
131.3	0.137339
131.4	0.137052
131.5	0.136771
131.6	0.136494
131.7	0.136212
131.8	0.135927
131.9	0.135639
132	0.135355
132.1	0.135076
132.2	0.134803
132.3	0.13453
132.4	0.134251
132.5	0.133969
132.6	0.133684
132.7	0.133397
132.8	0.133107
132.9	0.132816
133	0.132527
133.1	0.132235
133.2	0.13195
133.3	0.131666
133.4	0.131379
133.5	0.131094
133.6	0.130811
133.7	0.130521
133.8	0.130226
133.9	0.129926
134	0.129621
134.1	0.129316
134.2	0.129016
134.3	0.128716
134.4	0.128415
134.5	0.128116
134.6	0.127823
134.7	0.127527
134.8	0.127232
134.9	0.126941
135	0.126658
135.1	0.12638
135.2	0.126107
135.3	0.125838
135.4	0.125568
135.5	0.125296
135.6	0.125028
135.7	0.124763
135.8	0.124494
135.9	0.124223
136	0.123953
136.1	0.123688
136.2	0.12343
136.3	0.123179
136.4	0.122936
136.5	0.122694
136.6	0.122453
136.7	0.122209
136.8	0.121964
136.9	0.121724
137	0.121483
137.1	0.121248
137.2	0.121017
137.3	0.12079
137.4	0.120562
137.5	0.12033
137.6	0.120091
137.7	0.11985
137.8	0.119606
137.9	0.119356
138	0.119102
138.1	0.118845
138.2	0.118588
138.3	0.11834
138.4	0.118097
138.5	0.117856
138.6	0.117614
138.7	0.117371
138.8	0.117129
138.9	0.116881
139	0.116632
139.1	0.116386
139.2	0.116138
139.3	0.115886
139.4	0.115634
139.5	0.115381
139.6	0.115124
139.7	0.114864
139.8	0.114608
139.9	0.114359
140	0.11411
140.1	0.113858
140.2	0.113607
140.3	0.113354
140.4	0.113105
140.5	0.112865
140.6	0.112629
140.7	0.112396
140.8	0.112164
140.9	0.111934
141	0.111704
141.1	0.111473
141.2	0.111244
141.3	0.111017
141.4	0.11079
141.5	0.110562
141.6	0.110337
141.7	0.11011
141.8	0.10988
141.9	0.109649
142	0.10942
142.1	0.109183
142.2	0.108942
142.3	0.108708
142.4	0.108473
142.5	0.108231
142.6	0.107988
142.7	0.107746
142.8	0.107506
142.9	0.107263
143	0.107016
143.1	0.106768
143.2	0.106519
143.3	0.10627
143.4	0.106023
143.5	0.105778
143.6	0.105529
143.7	0.105275
143.8	0.105014
143.9	0.104753
144	0.104493
144.1	0.10423
144.2	0.103966
144.3	0.103705
144.4	0.103444
144.5	0.103186
144.6	0.102924
144.7	0.102659
144.8	0.102396
144.9	0.102136
145	0.101878
145.1	0.10162
145.2	0.101363
145.3	0.101107
145.4	0.100853
145.5	0.100604
145.6	0.100358
145.7	0.100115
