LagTime	Correlation

0	3.46123
0.1	3.45622
0.2	3.44873
0.3	3.44067
0.4	3.43249
0.5	3.42433
0.6	3.41621
0.7	3.40814
0.8	3.40011
0.9	3.39215
1	3.38424
1.1	3.37639
1.2	3.36858
1.3	3.36081
1.4	3.3531
1.5	3.34543
1.6	3.33782
1.7	3.33025
1.8	3.32274
1.9	3.31526
2	3.30783
2.1	3.30045
2.2	3.2931
2.3	3.28581
2.4	3.27855
2.5	3.27133
2.6	3.26416
2.7	3.25702
2.8	3.24992
2.9	3.24286
3	3.23583
3.1	3.22883
3.2	3.22188
3.3	3.21495
3.4	3.20807
3.5	3.20123
3.6	3.19443
3.7	3.18767
3.8	3.18095
3.9	3.17426
4	3.16761
4.1	3.161
4.2	3.15443
4.3	3.14789
4.4	3.14138
4.5	3.13491
4.6	3.12847
4.7	3.12206
4.8	3.1157
4.9	3.10936
5	3.10307
5.1	3.0968
5.2	3.09057
5.3	3.08437
5.4	3.07821
5.5	3.07207
5.6	3.06595
5.7	3.05987
5.8	3.05381
5.9	3.04777
6	3.04177
6.1	3.03579
6.2	3.02984
6.3	3.02392
6.4	3.01802
6.5	3.01215
6.6	3.00629
6.7	3.00046
6.8	2.99465
6.9	2.98886
7	2.9831
7.1	2.97736
7.2	2.97165
7.3	2.96596
7.4	2.9603
7.5	2.95466
7.6	2.94905
7.7	2.94347
7.8	2.93792
7.9	2.9324
8	2.9269
8.1	2.92142
8.2	2.91595
8.3	2.91051
8.4	2.90508
8.5	2.89967
8.6	2.89428
8.7	2.88891
8.8	2.88355
8.9	2.87822
9	2.8729
9.1	2.86761
9.2	2.86233
9.3	2.85708
9.4	2.85184
9.5	2.84662
9.6	2.84142
9.7	2.83623
9.8	2.83106
9.9	2.82591
10	2.82077
10.1	2.81566
10.2	2.81057
10.3	2.8055
10.4	2.80046
10.5	2.79543
10.6	2.79042
10.7	2.78543
10.8	2.78046
10.9	2.7755
11	2.77057
11.1	2.76565
11.2	2.76075
11.3	2.75587
11.4	2.751
11.5	2.74614
11.6	2.7413
11.7	2.73647
11.8	2.73167
11.9	2.72688
12	2.72211
12.1	2.71737
12.2	2.71265
12.3	2.70794
12.4	2.70324
12.5	2.69856
12.6	2.69389
12.7	2.68924
12.8	2.68461
12.9	2.67999
13	2.67538
13.1	2.67078
13.2	2.66619
13.3	2.66162
13.4	2.65706
13.5	2.65253
13.6	2.64801
13.7	2.64351
13.8	2.63901
13.9	2.63453
14	2.63005
14.1	2.62558
14.2	2.62113
14.3	2.61668
14.4	2.61225
14.5	2.60783
14.6	2.60342
14.7	2.59901
14.8	2.59462
14.9	2.59023
15	2.58584
15.1	2.58148
15.2	2.57712
15.3	2.57278
15.4	2.56845
15.5	2.56412
15.6	2.55982
15.7	2.55552
15.8	2.55123
15.9	2.54696
16	2.54271
16.1	2.53846
16.2	2.53423
16.3	2.53
16.4	2.52579
16.5	2.52159
16.6	2.5174
16.7	2.51322
16.8	2.50906
16.9	2.5049
17	2.50075
17.1	2.49661
17.2	2.49249
17.3	2.48837
17.4	2.48426
17.5	2.48014
17.6	2.47604
17.7	2.47194
17.8	2.46784
17.9	2.46375
18	2.45967
18.1	2.4556
18.2	2.45154
18.3	2.44749
18.4	2.44344
18.5	2.43938
18.6	2.43533
18.7	2.43128
18.8	2.42723
18.9	2.42319
19	2.41915
19.1	2.41512
19.2	2.4111
19.3	2.40709
19.4	2.40309
19.5	2.39909
19.6	2.39511
19.7	2.39115
19.8	2.3872
19.9	2.38326
20	2.37934
20.1	2.37541
20.2	2.37149
20.3	2.36758
20.4	2.36369
20.5	2.3598
20.6	2.35591
20.7	2.35203
20.8	2.34816
20.9	2.34428
21	2.34042
21.1	2.33656
21.2	2.33272
21.3	2.32889
21.4	2.32506
21.5	2.32124
21.6	2.31743
21.7	2.31361
21.8	2.30981
21.9	2.30601
22	2.30223
22.1	2.29846
22.2	2.2947
22.3	2.29095
22.4	2.28722
22.5	2.28349
22.6	2.27977
22.7	2.27606
22.8	2.27235
22.9	2.26865
23	2.26496
23.1	2.26127
23.2	2.25759
23.3	2.25392
23.4	2.25025
23.5	2.24659
23.6	2.24294
23.7	2.23929
23.8	2.23565
23.9	2.23202
24	2.2284
24.1	2.22479
24.2	2.22119
24.3	2.21758
24.4	2.21399
24.5	2.2104
24.6	2.20682
24.7	2.20324
24.8	2.19967
24.9	2.19611
25	2.19257
25.1	2.18902
25.2	2.18548
25.3	2.18195
25.4	2.17842
25.5	2.17489
25.6	2.17137
25.7	2.16785
25.8	2.16433
25.9	2.16082
26	2.15731
26.1	2.15382
26.2	2.15033
26.3	2.14685
26.4	2.14338
26.5	2.13991
26.6	2.13645
26.7	2.13299
26.8	2.12954
26.9	2.1261
27	2.12267
27.1	2.11925
27.2	2.11582
27.3	2.1124
27.4	2.10898
27.5	2.10556
27.6	2.10214
27.7	2.09873
27.8	2.09532
27.9	2.09192
28	2.08853
28.1	2.08515
28.2	2.08176
28.3	2.07837
28.4	2.07499
28.5	2.0716
28.6	2.06823
28.7	2.06485
28.8	2.06149
28.9	2.05813
29	2.05478
29.1	2.05144
29.2	2.0481
29.3	2.04476
29.4	2.04143
29.5	2.0381
29.6	2.03478
29.7	2.03147
29.8	2.02816
29.9	2.02486
30	2.02158
30.1	2.01829
30.2	2.01502
30.3	2.01175
30.4	2.00848
30.5	2.00522
30.6	2.00196
30.7	1.9987
30.8	1.99545
30.9	1.9922
31	1.98896
31.1	1.98572
31.2	1.98249
31.3	1.97926
31.4	1.97604
31.5	1.97283
31.6	1.96963
31.7	1.96644
31.8	1.96325
31.9	1.96007
32	1.95689
32.1	1.95372
32.2	1.95055
32.3	1.94739
32.4	1.94423
32.5	1.94108
32.6	1.93793
32.7	1.9348
32.8	1.93167
32.9	1.92854
33	1.92541
33.1	1.92228
33.2	1.91914
33.3	1.91601
33.4	1.91288
33.5	1.90976
33.6	1.90664
33.7	1.90353
33.8	1.90042
33.9	1.89732
34	1.89422
34.1	1.89113
34.2	1.88804
34.3	1.88496
34.4	1.8819
34.5	1.87884
34.6	1.87579
34.7	1.87275
34.8	1.86972
34.9	1.8667
35	1.86368
35.1	1.86067
35.2	1.85767
35.3	1.85467
35.4	1.85168
35.5	1.84868
35.6	1.84569
35.7	1.84271
35.8	1.83973
35.9	1.83675
36	1.83378
36.1	1.83081
36.2	1.82784
36.3	1.82487
36.4	1.82191
36.5	1.81894
36.6	1.81598
36.7	1.81303
36.8	1.81008
36.9	1.80713
37	1.80418
37.1	1.80123
37.2	1.79828
37.3	1.79535
37.4	1.79242
37.5	1.78949
37.6	1.78658
37.7	1.78366
37.8	1.78075
37.9	1.77785
38	1.77495
38.1	1.77206
38.2	1.76918
38.3	1.76631
38.4	1.76344
38.5	1.76059
38.6	1.75774
38.7	1.75489
38.8	1.75204
38.9	1.74919
39	1.74635
39.1	1.74352
39.2	1.7407
39.3	1.73788
39.4	1.73506
39.5	1.73224
39.6	1.72942
39.7	1.72661
39.8	1.72381
39.9	1.72101
40	1.71822
40.1	1.71543
40.2	1.71265
40.3	1.70988
40.4	1.70712
40.5	1.70436
40.6	1.70161
40.7	1.69885
40.8	1.6961
40.9	1.69336
41	1.69062
41.1	1.68789
41.2	1.68516
41.3	1.68243
41.4	1.6797
41.5	1.67698
41.6	1.67427
41.7	1.67156
41.8	1.66886
41.9	1.66616
42	1.66346
42.1	1.66077
42.2	1.65808
42.3	1.6554
42.4	1.65273
42.5	1.65007
42.6	1.6474
42.7	1.64473
42.8	1.64206
42.9	1.63939
43	1.63672
43.1	1.63406
43.2	1.63139
43.3	1.62873
43.4	1.62608
43.5	1.62342
43.6	1.62076
43.7	1.61811
43.8	1.61545
43.9	1.6128
44	1.61015
44.1	1.60751
44.2	1.60488
44.3	1.60224
44.4	1.59961
44.5	1.59698
44.6	1.59434
44.7	1.59172
44.8	1.58911
44.9	1.5865
45	1.58389
45.1	1.58129
45.2	1.57869
45.3	1.5761
45.4	1.57351
45.5	1.57093
45.6	1.56837
45.7	1.5658
45.8	1.56325
45.9	1.5607
46	1.55816
46.1	1.55564
46.2	1.55312
46.3	1.55061
46.4	1.5481
46.5	1.54559
46.6	1.54309
46.7	1.54059
46.8	1.53809
46.9	1.53559
47	1.5331
47.1	1.5306
47.2	1.52811
47.3	1.52562
47.4	1.52314
47.5	1.52066
47.6	1.51819
47.7	1.51572
47.8	1.51326
47.9	1.51079
48	1.50834
48.1	1.50589
48.2	1.50344
48.3	1.50099
48.4	1.49854
48.5	1.4961
48.6	1.49366
48.7	1.49122
48.8	1.48879
48.9	1.48635
49	1.4839
49.1	1.48147
49.2	1.47904
49.3	1.47662
49.4	1.4742
49.5	1.47179
49.6	1.46938
49.7	1.46697
49.8	1.46457
49.9	1.46217
50	1.45978
50.1	1.45738
50.2	1.45499
50.3	1.4526
50.4	1.45022
50.5	1.44784
50.6	1.44547
50.7	1.4431
50.8	1.44074
50.9	1.43837
51	1.43601
51.1	1.43366
51.2	1.4313
51.3	1.42895
51.4	1.42661
51.5	1.42427
51.6	1.42194
51.7	1.41961
51.8	1.41729
51.9	1.41497
52	1.41265
52.1	1.41034
52.2	1.40803
52.3	1.40573
52.4	1.40342
52.5	1.40112
52.6	1.39883
52.7	1.39655
52.8	1.39426
52.9	1.39198
53	1.3897
53.1	1.38741
53.2	1.38513
53.3	1.38286
53.4	1.38058
53.5	1.37832
53.6	1.37606
53.7	1.3738
53.8	1.37155
53.9	1.3693
54	1.36705
54.1	1.36481
54.2	1.36257
54.3	1.36033
54.4	1.3581
54.5	1.35587
54.6	1.35364
54.7	1.35142
54.8	1.3492
54.9	1.34699
55	1.34478
55.1	1.34257
55.2	1.34035
55.3	1.33814
55.4	1.33592
55.5	1.33371
55.6	1.33151
55.7	1.32932
55.8	1.32713
55.9	1.32496
56	1.32278
56.1	1.32061
56.2	1.31844
56.3	1.31626
56.4	1.3141
56.5	1.31194
56.6	1.30978
56.7	1.30761
56.8	1.30545
56.9	1.30329
57	1.30113
57.1	1.29898
57.2	1.29683
57.3	1.29468
57.4	1.29253
57.5	1.29039
57.6	1.28825
57.7	1.28611
57.8	1.28397
57.9	1.28184
58	1.2797
58.1	1.27757
58.2	1.27545
58.3	1.27333
58.4	1.27121
58.5	1.2691
58.6	1.26699
58.7	1.26487
58.8	1.26277
58.9	1.26066
59	1.25856
59.1	1.25646
59.2	1.25437
59.3	1.25229
59.4	1.25021
59.5	1.24812
59.6	1.24605
59.7	1.24397
59.8	1.2419
59.9	1.23982
60	1.23775
60.1	1.23568
60.2	1.23361
60.3	1.23154
60.4	1.22948
60.5	1.22741
60.6	1.22536
60.7	1.22331
60.8	1.22127
60.9	1.21924
61	1.21721
61.1	1.21518
61.2	1.21315
61.3	1.21113
61.4	1.20911
61.5	1.20709
61.6	1.20508
61.7	1.20308
61.8	1.20108
61.9	1.19908
62	1.19708
62.1	1.19509
62.2	1.1931
62.3	1.19111
62.4	1.18912
62.5	1.18714
62.6	1.18515
62.7	1.18317
62.8	1.1812
62.9	1.17923
63	1.17726
63.1	1.17529
63.2	1.17332
63.3	1.17136
63.4	1.1694
63.5	1.16744
63.6	1.16548
63.7	1.16353
63.8	1.16158
63.9	1.15965
64	1.15772
64.1	1.15579
64.2	1.15386
64.3	1.15194
64.4	1.15001
64.5	1.14809
64.6	1.14618
64.7	1.14426
64.8	1.14235
64.9	1.14046
65	1.13856
65.1	1.13667
65.2	1.13477
65.3	1.13289
65.4	1.131
65.5	1.12912
65.6	1.12725
65.7	1.12539
65.8	1.12353
65.9	1.12168
66	1.11984
66.1	1.118
66.2	1.11617
66.3	1.11434
66.4	1.11252
66.5	1.11069
66.6	1.10887
66.7	1.10705
66.8	1.10523
66.9	1.10341
67	1.1016
67.1	1.09979
67.2	1.09798
67.3	1.09617
67.4	1.09438
67.5	1.09258
67.6	1.09078
67.7	1.08899
67.8	1.0872
67.9	1.08541
68	1.08363
68.1	1.08184
68.2	1.08007
68.3	1.07829
68.4	1.07653
68.5	1.07477
68.6	1.07302
68.7	1.07128
68.8	1.06953
68.9	1.06779
69	1.06604
69.1	1.0643
69.2	1.06257
69.3	1.06084
69.4	1.05913
69.5	1.05742
69.6	1.05571
69.7	1.054
69.8	1.0523
69.9	1.05059
70	1.04888
70.1	1.04718
70.2	1.04549
70.3	1.0438
70.4	1.04211
70.5	1.04043
70.6	1.03874
70.7	1.03706
70.8	1.03539
70.9	1.03372
71	1.03205
71.1	1.03038
71.2	1.02871
71.3	1.02705
71.4	1.02538
71.5	1.02371
71.6	1.02204
71.7	1.02038
71.8	1.01872
71.9	1.01707
72	1.01542
72.1	1.01378
72.2	1.01214
72.3	1.01051
72.4	1.00888
72.5	1.00725
72.6	1.00563
72.7	1.00401
72.8	1.00238
72.9	1.00076
73	0.999147
73.1	0.997536
73.2	0.995927
73.3	0.994322
73.4	0.992721
73.5	0.99112
73.6	0.989523
73.7	0.987928
73.8	0.986332
73.9	0.984732
74	0.983129
74.1	0.981526
74.2	0.97992
74.3	0.978311
74.4	0.976707
74.5	0.97511
74.6	0.973521
74.7	0.971939
74.8	0.970354
74.9	0.968774
75	0.967195
75.1	0.965615
75.2	0.964037
75.3	0.962465
75.4	0.960891
75.5	0.959318
75.6	0.95775
75.7	0.956183
75.8	0.954615
75.9	0.953051
76	0.951487
76.1	0.949926
76.2	0.94836
76.3	0.946797
76.4	0.945234
76.5	0.943669
76.6	0.942102
76.7	0.940539
76.8	0.938976
76.9	0.937414
77	0.935856
77.1	0.934302
77.2	0.932752
77.3	0.931208
77.4	0.929667
77.5	0.928132
77.6	0.926598
77.7	0.925062
77.8	0.923526
77.9	0.921992
78	0.920463
78.1	0.91894
78.2	0.917423
78.3	0.915914
78.4	0.914411
78.5	0.912914
78.6	0.911419
78.7	0.909924
78.8	0.908428
78.9	0.906931
79	0.90544
79.1	0.903957
79.2	0.902481
79.3	0.901005
79.4	0.899534
79.5	0.898066
79.6	0.896602
79.7	0.895139
79.8	0.893678
79.9	0.892219
80	0.890765
80.1	0.889316
80.2	0.887871
80.3	0.886428
80.4	0.884988
80.5	0.883551
80.6	0.882116
80.7	0.880684
80.8	0.879253
80.9	0.87782
81	0.876394
81.1	0.874977
81.2	0.873565
81.3	0.872155
81.4	0.870744
81.5	0.869332
81.6	0.867919
81.7	0.866507
81.8	0.865096
81.9	0.863683
82	0.862269
82.1	0.860857
82.2	0.859444
82.3	0.858028
82.4	0.856606
82.5	0.855185
82.6	0.853769
82.7	0.852361
82.8	0.850959
82.9	0.849564
83	0.848168
83.1	0.846772
83.2	0.845376
83.3	0.84398
83.4	0.84259
83.5	0.841205
83.6	0.839819
83.7	0.838435
83.8	0.837052
83.9	0.835672
84	0.834291
84.1	0.832906
84.2	0.831517
84.3	0.83013
84.4	0.828749
84.5	0.827368
84.6	0.825989
84.7	0.824611
84.8	0.823235
84.9	0.821863
85	0.820497
85.1	0.819134
85.2	0.817774
85.3	0.816417
85.4	0.815062
85.5	0.813713
85.6	0.812369
85.7	0.811033
85.8	0.809701
85.9	0.808371
86	0.807042
86.1	0.805713
86.2	0.804381
86.3	0.803047
86.4	0.80172
86.5	0.800395
86.6	0.799069
86.7	0.79774
86.8	0.796414
86.9	0.79509
87	0.793773
87.1	0.792456
87.2	0.791141
87.3	0.789825
87.4	0.788512
87.5	0.787202
87.6	0.785897
87.7	0.784599
87.8	0.783303
87.9	0.782013
88	0.780721
88.1	0.779425
88.2	0.778125
88.3	0.776828
88.4	0.775533
88.5	0.774243
88.6	0.772962
88.7	0.771688
88.8	0.770421
88.9	0.769164
89	0.767916
89.1	0.76668
89.2	0.765454
89.3	0.764227
89.4	0.763001
89.5	0.761784
89.6	0.760573
89.7	0.759362
89.8	0.758157
89.9	0.756959
90	0.755759
90.1	0.754558
90.2	0.753357
90.3	0.752155
90.4	0.750958
90.5	0.749761
90.6	0.748562
90.7	0.747367
90.8	0.746175
90.9	0.744988
91	0.743808
91.1	0.742636
91.2	0.741466
91.3	0.7403
91.4	0.739138
91.5	0.737981
91.6	0.736821
91.7	0.735659
91.8	0.734498
91.9	0.733334
92	0.732166
92.1	0.730999
92.2	0.729834
92.3	0.72867
92.4	0.727513
92.5	0.72636
92.6	0.725204
92.7	0.724054
92.8	0.722907
92.9	0.721762
93	0.720623
93.1	0.719493
93.2	0.718368
93.3	0.717252
93.4	0.716146
93.5	0.715045
93.6	0.713954
93.7	0.712865
93.8	0.71178
93.9	0.710703
94	0.709625
94.1	0.708544
94.2	0.707462
94.3	0.706381
94.4	0.705294
94.5	0.704201
94.6	0.703108
94.7	0.702019
94.8	0.700936
94.9	0.699862
95	0.69879
95.1	0.697722
95.2	0.69666
95.3	0.695603
95.4	0.694546
95.5	0.69349
95.6	0.692436
95.7	0.691384
95.8	0.690333
95.9	0.689286
96	0.688239
96.1	0.687191
96.2	0.68614
96.3	0.68508
96.4	0.684015
96.5	0.682954
96.6	0.681887
96.7	0.680816
96.8	0.679749
96.9	0.678686
97	0.677628
97.1	0.676575
97.2	0.675523
97.3	0.674469
97.4	0.673414
97.5	0.672367
97.6	0.671326
97.7	0.670291
97.8	0.66926
97.9	0.668226
98	0.667196
98.1	0.666169
98.2	0.66514
98.3	0.664107
98.4	0.663071
98.5	0.662032
98.6	0.660998
98.7	0.659965
98.8	0.658932
98.9	0.6579
99	0.656868
99.1	0.655836
99.2	0.6548
99.3	0.653768
99.4	0.652743
99.5	0.651724
99.6	0.650705
99.7	0.649684
99.8	0.648657
99.9	0.647627
100	0.646596
100.1	0.645565
100.2	0.644535
100.3	0.643503
100.4	0.642469
100.5	0.641433
100.6	0.640397
100.7	0.639367
100.8	0.638337
100.9	0.637313
101	0.636288
101.1	0.635264
101.2	0.634239
101.3	0.633217
101.4	0.632192
101.5	0.631169
101.6	0.630151
101.7	0.62914
101.8	0.628134
101.9	0.627135
102	0.626138
102.1	0.625145
102.2	0.624158
102.3	0.623173
102.4	0.622185
102.5	0.621199
102.6	0.620212
102.7	0.619227
102.8	0.618242
102.9	0.617257
103	0.616273
103.1	0.61529
103.2	0.614304
103.3	0.613313
103.4	0.612324
103.5	0.611338
103.6	0.610352
103.7	0.609368
103.8	0.608379
103.9	0.607392
104	0.6064
104.1	0.605411
104.2	0.604428
104.3	0.60345
104.4	0.602471
104.5	0.601491
104.6	0.600508
104.7	0.599528
104.8	0.59855
104.9	0.597571
105	0.596591
105.1	0.595615
105.2	0.594647
105.3	0.593676
105.4	0.592702
105.5	0.591736
105.6	0.590783
105.7	0.589839
105.8	0.588898
105.9	0.587958
106	0.587022
106.1	0.58609
106.2	0.585159
106.3	0.58423
106.4	0.583306
106.5	0.582384
106.6	0.581463
106.7	0.580544
106.8	0.579626
106.9	0.578709
107	0.577795
107.1	0.57688
107.2	0.57597
107.3	0.57506
107.4	0.57415
107.5	0.573239
107.6	0.57233
107.7	0.571425
107.8	0.570521
107.9	0.569621
108	0.568721
108.1	0.567827
108.2	0.566942
108.3	0.566063
108.4	0.565192
108.5	0.564327
108.6	0.563467
108.7	0.562604
108.8	0.561746
108.9	0.560889
109	0.560039
109.1	0.559189
109.2	0.558342
109.3	0.557495
109.4	0.556648
109.5	0.555803
109.6	0.554952
109.7	0.5541
109.8	0.553247
109.9	0.552395
110	0.551547
110.1	0.550705
110.2	0.549871
110.3	0.549041
110.4	0.548214
110.5	0.547388
110.6	0.546562
110.7	0.545738
110.8	0.544912
110.9	0.544091
111	0.543273
111.1	0.542457
111.2	0.54164
111.3	0.540818
111.4	0.539998
111.5	0.539185
111.6	0.538373
111.7	0.537559
111.8	0.536746
111.9	0.535936
112	0.535124
112.1	0.534307
112.2	0.533491
112.3	0.532671
112.4	0.531846
112.5	0.531018
112.6	0.53019
112.7	0.529366
112.8	0.528544
112.9	0.527723
113	0.526905
113.1	0.526089
113.2	0.525271
113.3	0.524455
113.4	0.523641
113.5	0.522827
113.6	0.522013
113.7	0.521203
113.8	0.520392
113.9	0.519581
114	0.518775
114.1	0.517969
114.2	0.51716
114.3	0.516352
114.4	0.515549
114.5	0.514751
114.6	0.51396
114.7	0.513169
114.8	0.512379
114.9	0.511587
115	0.510797
115.1	0.510003
115.2	0.509211
115.3	0.50842
115.4	0.507631
115.5	0.506845
115.6	0.506066
115.7	0.505287
115.8	0.504504
115.9	0.50372
116	0.50294
116.1	0.502159
116.2	0.50138
116.3	0.500607
116.4	0.499834
116.5	0.499064
116.6	0.498294
116.7	0.497526
116.8	0.496761
116.9	0.495999
117	0.495237
117.1	0.494469
117.2	0.4937
117.3	0.492927
117.4	0.492151
117.5	0.49137
117.6	0.490582
117.7	0.489794
117.8	0.489007
117.9	0.488217
118	0.487431
118.1	0.486654
118.2	0.485878
118.3	0.485099
118.4	0.484317
118.5	0.483528
118.6	0.48274
118.7	0.481955
118.8	0.481173
118.9	0.480394
119	0.479619
119.1	0.478845
119.2	0.478071
119.3	0.477296
119.4	0.476515
119.5	0.475732
119.6	0.474953
119.7	0.474177
119.8	0.473407
119.9	0.472644
120	0.471879
120.1	0.47111
120.2	0.470344
120.3	0.469578
120.4	0.468814
120.5	0.46805
120.6	0.467287
120.7	0.466525
120.8	0.465767
120.9	0.465004
121	0.464241
121.1	0.463478
121.2	0.462716
121.3	0.461957
121.4	0.461195
121.5	0.460431
121.6	0.459668
121.7	0.458907
121.8	0.458149
121.9	0.457402
122	0.456659
122.1	0.455921
122.2	0.455185
122.3	0.454449
122.4	0.453716
122.5	0.452982
122.6	0.452246
122.7	0.451509
122.8	0.450774
122.9	0.450044
123	0.449318
123.1	0.448598
123.2	0.447882
123.3	0.44717
123.4	0.446462
123.5	0.445756
123.6	0.445055
123.7	0.444355
123.8	0.443657
123.9	0.442958
124	0.442264
124.1	0.441574
124.2	0.44089
124.3	0.440215
124.4	0.439541
124.5	0.438866
124.6	0.438192
124.7	0.437517
124.8	0.436847
124.9	0.436185
125	0.43553
125.1	0.434878
125.2	0.434223
125.3	0.43357
125.4	0.432916
125.5	0.432265
125.6	0.431614
125.7	0.430964
125.8	0.430319
125.9	0.429674
126	0.429033
126.1	0.428395
126.2	0.427765
126.3	0.427138
126.4	0.426509
126.5	0.425878
126.6	0.425246
126.7	0.424613
126.8	0.423979
126.9	0.423342
127	0.422712
127.1	0.422086
127.2	0.42146
127.3	0.420832
127.4	0.420203
127.5	0.419576
127.6	0.418951
127.7	0.418327
127.8	0.417703
127.9	0.417082
128	0.416464
128.1	0.415847
128.2	0.41523
128.3	0.414613
128.4	0.413994
128.5	0.413376
128.6	0.412758
128.7	0.412146
128.8	0.411533
128.9	0.410923
129	0.410315
129.1	0.409713
129.2	0.409114
129.3	0.408519
129.4	0.407934
129.5	0.407347
129.6	0.406761
129.7	0.406171
129.8	0.405577
129.9	0.404983
130	0.404393
130.1	0.4038
130.2	0.40321
130.3	0.402622
130.4	0.40204
130.5	0.401461
130.6	0.400888
130.7	0.400319
130.8	0.399753
130.9	0.399189
131	0.398621
131.1	0.398055
131.2	0.397486
131.3	0.396917
131.4	0.396345
131.5	0.395767
131.6	0.395187
131.7	0.394608
131.8	0.394035
131.9	0.393464
132	0.392898
132.1	0.392332
132.2	0.391767
132.3	0.3912
132.4	0.390633
132.5	0.390065
132.6	0.389496
132.7	0.388925
132.8	0.388357
132.9	0.387792
133	0.387224
133.1	0.386656
133.2	0.386088
133.3	0.38552
133.4	0.384948
133.5	0.384377
133.6	0.383809
133.7	0.383242
133.8	0.382675
133.9	0.382109
134	0.381543
134.1	0.380976
134.2	0.380414
134.3	0.379854
134.4	0.379295
134.5	0.378733
134.6	0.378166
134.7	0.377593
134.8	0.377012
134.9	0.376424
135	0.375831
135.1	0.375238
135.2	0.374645
135.3	0.374049
135.4	0.37345
135.5	0.372846
135.6	0.372244
135.7	0.371638
135.8	0.371028
135.9	0.370417
136	0.369803
136.1	0.369189
136.2	0.368575
136.3	0.367963
136.4	0.367354
136.5	0.366744
136.6	0.366128
136.7	0.365501
136.8	0.364873
136.9	0.364241
137	0.36361
137.1	0.362979
137.2	0.362352
137.3	0.361728
137.4	0.361107
137.5	0.360489
137.6	0.359876
137.7	0.359265
137.8	0.358658
137.9	0.358051
138	0.357446
138.1	0.356839
138.2	0.356227
138.3	0.355615
138.4	0.355002
138.5	0.35439
138.6	0.353778
138.7	0.353164
138.8	0.352547
138.9	0.351931
139	0.351316
139.1	0.350702
139.2	0.350088
139.3	0.349474
139.4	0.348868
139.5	0.348269
139.6	0.347669
139.7	0.34707
139.8	0.346477
139.9	0.345887
140	0.345303
140.1	0.344723
140.2	0.344147
140.3	0.343577
140.4	0.343006
140.5	0.342433
140.6	0.341857
140.7	0.341282
140.8	0.340706
140.9	0.340132
141	0.339557
141.1	0.338982
141.2	0.338407
141.3	0.337837
141.4	0.337268
141.5	0.336699
141.6	0.336133
141.7	0.335566
141.8	0.334995
141.9	0.334418
142	0.33384
142.1	0.333263
142.2	0.332685
142.3	0.332107
142.4	0.331525
142.5	0.330936
142.6	0.33035
142.7	0.329764
142.8	0.329176
142.9	0.328587
143	0.327996
143.1	0.327403
143.2	0.326814
143.3	0.32623
143.4	0.325649
143.5	0.32507
143.6	0.324493
143.7	0.323918
143.8	0.323343
143.9	0.32277
144	0.322197
144.1	0.321627
144.2	0.321066
144.3	0.32051
144.4	0.319956
144.5	0.3194
144.6	0.318846
144.7	0.318292
144.8	0.317732
144.9	0.317173
145	0.316611
145.1	0.316053
145.2	0.315499
145.3	0.314957
145.4	0.314423
145.5	0.313894
145.6	0.313364
145.7	0.312829
145.8	0.312293
145.9	0.311756
146	0.311212
146.1	0.310669
146.2	0.310129
146.3	0.309599
146.4	0.309076
146.5	0.308553
146.6	0.308027
146.7	0.307497
146.8	0.306969
146.9	0.306441
147	0.305911
147.1	0.305375
147.2	0.30484
147.3	0.30431
147.4	0.303784
147.5	0.30326
147.6	0.302733
147.7	0.302212
147.8	0.301696
147.9	0.301185
148	0.300677
148.1	0.300164
148.2	0.299654
148.3	0.299144
148.4	0.298629
