LagTime	Correlation

0	3.44736
0.1	3.44235
0.2	3.43486
0.3	3.42678
0.4	3.4186
0.5	3.41042
0.6	3.4023
0.7	3.39423
0.8	3.38622
0.9	3.37825
1	3.37032
1.1	3.36245
1.2	3.35461
1.3	3.34683
1.4	3.3391
1.5	3.33141
1.6	3.32378
1.7	3.31618
1.8	3.30864
1.9	3.30113
2	3.29367
2.1	3.28627
2.2	3.2789
2.3	3.27159
2.4	3.2643
2.5	3.25706
2.6	3.24986
2.7	3.24269
2.8	3.23556
2.9	3.22847
3	3.22142
3.1	3.2144
3.2	3.20741
3.3	3.20046
3.4	3.19355
3.5	3.18668
3.6	3.17984
3.7	3.17304
3.8	3.16628
3.9	3.15954
4	3.15285
4.1	3.14619
4.2	3.13957
4.3	3.13298
4.4	3.12644
4.5	3.11993
4.6	3.11346
4.7	3.10703
4.8	3.10062
4.9	3.09425
5	3.0879
5.1	3.08158
5.2	3.07529
5.3	3.06902
5.4	3.06278
5.5	3.05658
5.6	3.0504
5.7	3.04426
5.8	3.03814
5.9	3.03205
6	3.02599
6.1	3.01994
6.2	3.01392
6.3	3.00792
6.4	3.00195
6.5	2.99601
6.6	2.99008
6.7	2.98418
6.8	2.97831
6.9	2.97246
7	2.96663
7.1	2.96083
7.2	2.95504
7.3	2.94928
7.4	2.94355
7.5	2.93783
7.6	2.93214
7.7	2.92647
7.8	2.92082
7.9	2.91519
8	2.90958
8.1	2.90398
8.2	2.89841
8.3	2.89286
8.4	2.88733
8.5	2.88183
8.6	2.87635
8.7	2.8709
8.8	2.86547
8.9	2.86006
9	2.85468
9.1	2.84931
9.2	2.84397
9.3	2.83865
9.4	2.83335
9.5	2.82807
9.6	2.82281
9.7	2.81756
9.8	2.81232
9.9	2.8071
10	2.80188
10.1	2.79669
10.2	2.79153
10.3	2.78638
10.4	2.78126
10.5	2.77616
10.6	2.77108
10.7	2.76601
10.8	2.76096
10.9	2.75593
11	2.75092
11.1	2.74593
11.2	2.74094
11.3	2.73597
11.4	2.73102
11.5	2.72608
11.6	2.72114
11.7	2.71622
11.8	2.71131
11.9	2.70642
12	2.70154
12.1	2.69669
12.2	2.69184
12.3	2.68701
12.4	2.68219
12.5	2.67738
12.6	2.67258
12.7	2.66779
12.8	2.66302
12.9	2.65826
13	2.65351
13.1	2.64877
13.2	2.64404
13.3	2.63933
13.4	2.63462
13.5	2.62994
13.6	2.62527
13.7	2.62062
13.8	2.61599
13.9	2.61137
14	2.60676
14.1	2.60216
14.2	2.59757
14.3	2.593
14.4	2.58843
14.5	2.58388
14.6	2.57933
14.7	2.57479
14.8	2.57026
14.9	2.56574
15	2.56122
15.1	2.55672
15.2	2.55223
15.3	2.54775
15.4	2.54327
15.5	2.53881
15.6	2.53437
15.7	2.52993
15.8	2.52551
15.9	2.5211
16	2.5167
16.1	2.5123
16.2	2.50792
16.3	2.50355
16.4	2.49919
16.5	2.49483
16.6	2.49048
16.7	2.48615
16.8	2.48182
16.9	2.4775
17	2.47319
17.1	2.46888
17.2	2.46458
17.3	2.46029
17.4	2.45601
17.5	2.45174
17.6	2.44749
17.7	2.44325
17.8	2.43902
17.9	2.4348
18	2.4306
18.1	2.42641
18.2	2.42224
18.3	2.41808
18.4	2.41393
18.5	2.40978
18.6	2.40565
18.7	2.40152
18.8	2.3974
18.9	2.39328
19	2.38917
19.1	2.38507
19.2	2.38098
19.3	2.3769
19.4	2.37282
19.5	2.36875
19.6	2.36469
19.7	2.36063
19.8	2.35658
19.9	2.35254
20	2.3485
20.1	2.34448
20.2	2.34047
20.3	2.33646
20.4	2.33247
20.5	2.32848
20.6	2.3245
20.7	2.32053
20.8	2.31657
20.9	2.31262
21	2.30869
21.1	2.30476
21.2	2.30084
21.3	2.29694
21.4	2.29304
21.5	2.28916
21.6	2.28528
21.7	2.28141
21.8	2.27753
21.9	2.27366
22	2.26979
22.1	2.26593
22.2	2.26207
22.3	2.25821
22.4	2.25437
22.5	2.25055
22.6	2.24673
22.7	2.24293
22.8	2.23913
22.9	2.23533
23	2.23156
23.1	2.22778
23.2	2.22402
23.3	2.22026
23.4	2.2165
23.5	2.21274
23.6	2.209
23.7	2.20525
23.8	2.20151
23.9	2.19779
24	2.19407
24.1	2.19036
24.2	2.18666
24.3	2.18296
24.4	2.17927
24.5	2.17558
24.6	2.1719
24.7	2.16823
24.8	2.16456
24.9	2.1609
25	2.15724
25.1	2.15359
25.2	2.14994
25.3	2.1463
25.4	2.14267
25.5	2.13904
25.6	2.13542
25.7	2.13181
25.8	2.12821
25.9	2.12461
26	2.12102
26.1	2.11742
26.2	2.11384
26.3	2.11025
26.4	2.10668
26.5	2.10312
26.6	2.09957
26.7	2.09604
26.8	2.09251
26.9	2.08899
27	2.08546
27.1	2.08194
27.2	2.07842
27.3	2.07491
27.4	2.07141
27.5	2.06791
27.6	2.06442
27.7	2.06093
27.8	2.05744
27.9	2.05396
28	2.05048
28.1	2.04701
28.2	2.04354
28.3	2.04007
28.4	2.03661
28.5	2.03316
28.6	2.02973
28.7	2.0263
28.8	2.02289
28.9	2.01949
29	2.01609
29.1	2.01271
29.2	2.00933
29.3	2.00595
29.4	2.00258
29.5	1.99922
29.6	1.99586
29.7	1.99251
29.8	1.98916
29.9	1.98582
30	1.98248
30.1	1.97915
30.2	1.97582
30.3	1.9725
30.4	1.96918
30.5	1.96587
30.6	1.96257
30.7	1.95926
30.8	1.95597
30.9	1.95268
31	1.9494
31.1	1.94612
31.2	1.94285
31.3	1.93958
31.4	1.93631
31.5	1.93305
31.6	1.92979
31.7	1.92656
31.8	1.92333
31.9	1.92011
32	1.9169
32.1	1.9137
32.2	1.91051
32.3	1.90733
32.4	1.90416
32.5	1.901
32.6	1.89784
32.7	1.8947
32.8	1.89156
32.9	1.88843
33	1.88532
33.1	1.88222
33.2	1.87912
33.3	1.87603
33.4	1.87295
33.5	1.86988
33.6	1.86681
33.7	1.86375
33.8	1.8607
33.9	1.85764
34	1.85459
34.1	1.85154
34.2	1.8485
34.3	1.84547
34.4	1.84243
34.5	1.8394
34.6	1.83637
34.7	1.83335
34.8	1.83034
34.9	1.82733
35	1.82432
35.1	1.82132
35.2	1.81833
35.3	1.81534
35.4	1.81235
35.5	1.80937
35.6	1.8064
35.7	1.80342
35.8	1.80044
35.9	1.79746
36	1.79448
36.1	1.7915
36.2	1.78851
36.3	1.78553
36.4	1.78255
36.5	1.77957
36.6	1.77659
36.7	1.77361
36.8	1.77062
36.9	1.76764
37	1.76466
37.1	1.76169
37.2	1.75873
37.3	1.75578
37.4	1.75282
37.5	1.74986
37.6	1.74691
37.7	1.74397
37.8	1.74103
37.9	1.73811
38	1.73519
38.1	1.73227
38.2	1.72936
38.3	1.72645
38.4	1.72355
38.5	1.72066
38.6	1.71778
38.7	1.71491
38.8	1.71204
38.9	1.70918
39	1.70633
39.1	1.70348
39.2	1.70064
39.3	1.6978
39.4	1.69497
39.5	1.69215
39.6	1.68933
39.7	1.68653
39.8	1.68373
39.9	1.68093
40	1.67815
40.1	1.67538
40.2	1.67262
40.3	1.66986
40.4	1.6671
40.5	1.66435
40.6	1.66161
40.7	1.65887
40.8	1.65613
40.9	1.6534
41	1.65067
41.1	1.64796
41.2	1.64525
41.3	1.64254
41.4	1.63984
41.5	1.63713
41.6	1.63444
41.7	1.63175
41.8	1.62906
41.9	1.62637
42	1.62369
42.1	1.62101
42.2	1.61834
42.3	1.61566
42.4	1.613
42.5	1.61034
42.6	1.60769
42.7	1.60504
42.8	1.6024
42.9	1.59976
43	1.59712
43.1	1.59447
43.2	1.59184
43.3	1.5892
43.4	1.58656
43.5	1.58393
43.6	1.58129
43.7	1.57866
43.8	1.57602
43.9	1.5734
44	1.57077
44.1	1.56815
44.2	1.56553
44.3	1.56292
44.4	1.56031
44.5	1.55771
44.6	1.55512
44.7	1.55252
44.8	1.54994
44.9	1.54735
45	1.54478
45.1	1.54221
45.2	1.53965
45.3	1.53709
45.4	1.53454
45.5	1.53199
45.6	1.52945
45.7	1.5269
45.8	1.52436
45.9	1.52182
46	1.51928
46.1	1.51675
46.2	1.51421
46.3	1.51168
46.4	1.50915
46.5	1.50663
46.6	1.5041
46.7	1.50158
46.8	1.49906
46.9	1.49655
47	1.49404
47.1	1.49154
47.2	1.48904
47.3	1.48656
47.4	1.48408
47.5	1.4816
47.6	1.47912
47.7	1.47665
47.8	1.47418
47.9	1.47172
48	1.46926
48.1	1.4668
48.2	1.46435
48.3	1.46191
48.4	1.45947
48.5	1.45703
48.6	1.4546
48.7	1.45217
48.8	1.44975
48.9	1.44732
49	1.4449
49.1	1.44248
49.2	1.44007
49.3	1.43766
49.4	1.43527
49.5	1.43287
49.6	1.43048
49.7	1.4281
49.8	1.42571
49.9	1.42333
50	1.42094
50.1	1.41856
50.2	1.41618
50.3	1.4138
50.4	1.41143
50.5	1.40905
50.6	1.40668
50.7	1.4043
50.8	1.40193
50.9	1.39956
51	1.39719
51.1	1.39482
51.2	1.39246
51.3	1.39011
51.4	1.38777
51.5	1.38544
51.6	1.38311
51.7	1.38078
51.8	1.37845
51.9	1.37613
52	1.37381
52.1	1.37149
52.2	1.36917
52.3	1.36685
52.4	1.36452
52.5	1.36219
52.6	1.35986
52.7	1.35754
52.8	1.35522
52.9	1.35291
53	1.35059
53.1	1.34828
53.2	1.34597
53.3	1.34367
53.4	1.34137
53.5	1.33908
53.6	1.33679
53.7	1.33451
53.8	1.33222
53.9	1.32995
54	1.32767
54.1	1.3254
54.2	1.32315
54.3	1.3209
54.4	1.31865
54.5	1.31639
54.6	1.31415
54.7	1.31192
54.8	1.30969
54.9	1.30746
55	1.30523
55.1	1.303
55.2	1.30077
55.3	1.29855
55.4	1.29634
55.5	1.29412
55.6	1.29191
55.7	1.2897
55.8	1.28749
55.9	1.28529
56	1.2831
56.1	1.2809
56.2	1.27871
56.3	1.27652
56.4	1.27432
56.5	1.27213
56.6	1.26994
56.7	1.26775
56.8	1.26556
56.9	1.26338
57	1.2612
57.1	1.25902
57.2	1.25684
57.3	1.25467
57.4	1.25249
57.5	1.25032
57.6	1.24815
57.7	1.24598
57.8	1.24381
57.9	1.24165
58	1.2395
58.1	1.23736
58.2	1.23522
58.3	1.23309
58.4	1.23096
58.5	1.22883
58.6	1.22671
58.7	1.22459
58.8	1.22248
58.9	1.22037
59	1.21828
59.1	1.2162
59.2	1.21412
59.3	1.21206
59.4	1.21
59.5	1.20794
59.6	1.20589
59.7	1.20384
59.8	1.2018
59.9	1.19977
60	1.19775
60.1	1.19573
60.2	1.1937
60.3	1.19167
60.4	1.18964
60.5	1.18761
60.6	1.18557
60.7	1.18353
60.8	1.18149
60.9	1.17945
61	1.17741
61.1	1.17539
61.2	1.17337
61.3	1.17135
61.4	1.16935
61.5	1.16735
61.6	1.16535
61.7	1.16336
61.8	1.16136
61.9	1.15937
62	1.15739
62.1	1.15541
62.2	1.15343
62.3	1.15145
62.4	1.14947
62.5	1.14749
62.6	1.14551
62.7	1.14354
62.8	1.14157
62.9	1.1396
63	1.13764
63.1	1.13569
63.2	1.13374
63.3	1.1318
63.4	1.12986
63.5	1.12792
63.6	1.12599
63.7	1.12407
63.8	1.12215
63.9	1.12025
64	1.11835
64.1	1.11645
64.2	1.11456
64.3	1.11268
64.4	1.1108
64.5	1.10892
64.6	1.10705
64.7	1.10518
64.8	1.10331
64.9	1.10145
65	1.09958
65.1	1.09773
65.2	1.09588
65.3	1.09404
65.4	1.0922
65.5	1.09037
65.6	1.08854
65.7	1.08672
65.8	1.0849
65.9	1.08309
66	1.08127
66.1	1.07946
66.2	1.07764
66.3	1.07583
66.4	1.07402
66.5	1.07221
66.6	1.0704
66.7	1.06859
66.8	1.06679
66.9	1.06499
67	1.06319
67.1	1.06139
67.2	1.05961
67.3	1.05782
67.4	1.05604
67.5	1.05426
67.6	1.05248
67.7	1.05071
67.8	1.04894
67.9	1.04717
68	1.0454
68.1	1.04364
68.2	1.04187
68.3	1.04012
68.4	1.03836
68.5	1.03661
68.6	1.03486
68.7	1.03311
68.8	1.03137
68.9	1.02962
69	1.02788
69.1	1.02614
69.2	1.02441
69.3	1.02269
69.4	1.02097
69.5	1.01925
69.6	1.01753
69.7	1.01582
69.8	1.01413
69.9	1.01243
70	1.01074
70.1	1.00905
70.2	1.00736
70.3	1.00567
70.4	1.00398
70.5	1.00229
70.6	1.00061
70.7	0.998919
70.8	0.99723
70.9	0.995545
71	0.993861
71.1	0.992181
71.2	0.990503
71.3	0.988819
71.4	0.987139
71.5	0.985464
71.6	0.98379
71.7	0.982114
71.8	0.980435
71.9	0.978754
72	0.977073
72.1	0.975391
72.2	0.97371
72.3	0.972026
72.4	0.970343
72.5	0.968665
72.6	0.966998
72.7	0.965335
72.8	0.963668
72.9	0.962002
73	0.960343
73.1	0.958687
73.2	0.957037
73.3	0.955389
73.4	0.953747
73.5	0.952113
73.6	0.950483
73.7	0.948854
73.8	0.947226
73.9	0.9456
74	0.943977
74.1	0.942357
74.2	0.940744
74.3	0.939135
74.4	0.937526
74.5	0.93592
74.6	0.934316
74.7	0.932714
74.8	0.931116
74.9	0.929523
75	0.92793
75.1	0.926335
75.2	0.924738
75.3	0.923141
75.4	0.921552
75.5	0.919973
75.6	0.918398
75.7	0.91683
75.8	0.915264
75.9	0.913703
76	0.912144
76.1	0.910587
76.2	0.90903
76.3	0.907477
76.4	0.905931
76.5	0.904387
76.6	0.902849
76.7	0.901314
76.8	0.899778
76.9	0.898245
77	0.896716
77.1	0.895186
77.2	0.893659
77.3	0.892133
77.4	0.890615
77.5	0.889102
77.6	0.887592
77.7	0.886086
77.8	0.884587
77.9	0.883094
78	0.881609
78.1	0.88013
78.2	0.878657
78.3	0.877189
78.4	0.875729
78.5	0.874276
78.6	0.872829
78.7	0.871385
78.8	0.869943
78.9	0.8685
79	0.867059
79.1	0.865618
79.2	0.864181
79.3	0.862741
79.4	0.861304
79.5	0.859871
79.6	0.858441
79.7	0.857011
79.8	0.855584
79.9	0.854162
80	0.852748
80.1	0.851339
80.2	0.849939
80.3	0.848542
80.4	0.847145
80.5	0.845751
80.6	0.844356
80.7	0.842956
80.8	0.841557
80.9	0.840158
81	0.838762
81.1	0.837364
81.2	0.835964
81.3	0.834569
81.4	0.833182
81.5	0.831804
81.6	0.830434
81.7	0.829071
81.8	0.827713
81.9	0.826362
82	0.825015
82.1	0.823665
82.2	0.822308
82.3	0.82095
82.4	0.819595
82.5	0.818248
82.6	0.816906
82.7	0.815565
82.8	0.814225
82.9	0.812883
83	0.811545
83.1	0.810209
83.2	0.808879
83.3	0.807557
83.4	0.806238
83.5	0.804925
83.6	0.803615
83.7	0.802302
83.8	0.800984
83.9	0.799666
84	0.798352
84.1	0.797037
84.2	0.795718
84.3	0.794404
84.4	0.793092
84.5	0.791777
84.6	0.790464
84.7	0.789154
84.8	0.787849
84.9	0.78655
85	0.785253
85.1	0.783961
85.2	0.782671
85.3	0.781382
85.4	0.780091
85.5	0.778803
85.6	0.77752
85.7	0.776242
85.8	0.774969
85.9	0.773702
86	0.772442
86.1	0.77119
86.2	0.769941
86.3	0.768688
86.4	0.767433
86.5	0.766181
86.6	0.764929
86.7	0.763682
86.8	0.762438
86.9	0.761195
87	0.759954
87.1	0.758712
87.2	0.757469
87.3	0.75623
87.4	0.754996
87.5	0.753768
87.6	0.752546
87.7	0.751326
87.8	0.750104
87.9	0.748879
88	0.747651
88.1	0.746422
88.2	0.745198
88.3	0.743985
88.4	0.742779
88.5	0.74158
88.6	0.740383
88.7	0.739186
88.8	0.737985
88.9	0.736785
89	0.735587
89.1	0.734396
89.2	0.733215
89.3	0.73204
89.4	0.730866
89.5	0.729694
89.6	0.728519
89.7	0.727344
89.8	0.726167
89.9	0.724993
90	0.723823
90.1	0.72265
90.2	0.721474
90.3	0.720292
90.4	0.719109
90.5	0.717926
90.6	0.716751
90.7	0.715576
90.8	0.714405
90.9	0.713242
91	0.712085
91.1	0.710935
91.2	0.709788
91.3	0.708642
91.4	0.707498
91.5	0.706358
91.6	0.705222
91.7	0.704087
91.8	0.702951
91.9	0.701815
92	0.700685
92.1	0.69956
92.2	0.698444
92.3	0.697332
92.4	0.696228
92.5	0.695126
92.6	0.69403
92.7	0.692941
92.8	0.691852
92.9	0.690767
93	0.689682
93.1	0.688598
93.2	0.687517
93.3	0.68644
93.4	0.685365
93.5	0.684288
93.6	0.683213
93.7	0.682136
93.8	0.681066
93.9	0.679998
94	0.678931
94.1	0.677865
94.2	0.676804
94.3	0.675748
94.4	0.67469
94.5	0.673635
94.6	0.67259
94.7	0.671546
94.8	0.670505
94.9	0.669466
95	0.668433
95.1	0.667404
95.2	0.666374
95.3	0.665345
95.4	0.66432
95.5	0.663297
95.6	0.662273
95.7	0.66125
95.8	0.660229
95.9	0.65921
96	0.658189
96.1	0.657167
96.2	0.656141
96.3	0.655116
96.4	0.654094
96.5	0.653074
96.6	0.652053
96.7	0.65104
96.8	0.650031
96.9	0.64902
97	0.64801
97.1	0.647004
97.2	0.645998
97.3	0.644991
97.4	0.643982
97.5	0.642976
97.6	0.641971
97.7	0.640967
97.8	0.639968
97.9	0.638971
98	0.637974
98.1	0.636977
98.2	0.635984
98.3	0.634998
98.4	0.634013
98.5	0.633034
98.6	0.632059
98.7	0.631087
98.8	0.630119
98.9	0.629156
99	0.628193
99.1	0.627228
99.2	0.626264
99.3	0.625304
99.4	0.624348
99.5	0.623392
99.6	0.622435
99.7	0.62148
99.8	0.620531
99.9	0.619583
100	0.618638
100.1	0.617692
100.2	0.61675
100.3	0.615803
100.4	0.614861
100.5	0.613921
100.6	0.612984
100.7	0.61205
100.8	0.611117
100.9	0.610189
101	0.609261
101.1	0.608337
101.2	0.607408
101.3	0.606482
101.4	0.605559
101.5	0.604639
101.6	0.603723
101.7	0.602808
101.8	0.601894
101.9	0.600981
102	0.600067
102.1	0.599153
102.2	0.598241
102.3	0.597333
102.4	0.596427
102.5	0.595521
102.6	0.594618
102.7	0.593714
102.8	0.592813
102.9	0.59191
103	0.591006
103.1	0.590103
103.2	0.5892
103.3	0.588297
103.4	0.587397
103.5	0.586501
103.6	0.585607
103.7	0.584716
103.8	0.583823
103.9	0.582927
104	0.582029
104.1	0.58113
104.2	0.580235
104.3	0.579343
104.4	0.578449
104.5	0.577559
104.6	0.576676
104.7	0.575797
104.8	0.574923
104.9	0.574051
105	0.573183
105.1	0.572315
105.2	0.57145
105.3	0.570585
105.4	0.569724
105.5	0.568863
105.6	0.568004
105.7	0.567145
105.8	0.566284
105.9	0.565422
106	0.56456
106.1	0.5637
106.2	0.562839
106.3	0.561979
106.4	0.561124
106.5	0.560274
106.6	0.55943
106.7	0.55859
106.8	0.557749
106.9	0.556906
107	0.556059
107.1	0.555208
107.2	0.554355
107.3	0.553498
107.4	0.552644
107.5	0.551787
107.6	0.550936
107.7	0.550089
107.8	0.549246
107.9	0.548405
108	0.547562
108.1	0.546721
108.2	0.545883
108.3	0.545048
108.4	0.544221
108.5	0.543401
108.6	0.542581
108.7	0.541752
108.8	0.540922
108.9	0.540092
109	0.53926
109.1	0.538426
109.2	0.537591
109.3	0.536761
109.4	0.535932
109.5	0.535104
109.6	0.534277
109.7	0.533449
109.8	0.532618
109.9	0.531785
110	0.530952
110.1	0.530121
110.2	0.52929
110.3	0.528463
110.4	0.527646
110.5	0.526836
110.6	0.526032
110.7	0.525232
110.8	0.524432
110.9	0.523627
111	0.522822
111.1	0.522026
111.2	0.521229
111.3	0.520429
111.4	0.519626
111.5	0.518819
111.6	0.518007
111.7	0.517192
111.8	0.516374
111.9	0.515558
112	0.514749
112.1	0.513945
112.2	0.513143
112.3	0.512342
112.4	0.511538
112.5	0.510733
112.6	0.509928
112.7	0.509123
112.8	0.508322
112.9	0.507527
113	0.506741
113.1	0.505956
113.2	0.505168
113.3	0.504382
113.4	0.503599
113.5	0.502816
113.6	0.502034
113.7	0.501254
113.8	0.500476
113.9	0.499702
114	0.498927
114.1	0.498157
114.2	0.497392
114.3	0.496632
114.4	0.495872
114.5	0.495117
114.6	0.494366
114.7	0.493624
114.8	0.492883
114.9	0.492141
115	0.491396
115.1	0.490652
115.2	0.489908
115.3	0.489168
115.4	0.48843
115.5	0.48769
115.6	0.486948
115.7	0.486212
115.8	0.485484
115.9	0.484762
116	0.48405
116.1	0.48334
116.2	0.482631
116.3	0.481924
116.4	0.481216
116.5	0.48051
116.6	0.479805
116.7	0.479101
116.8	0.478403
116.9	0.477708
117	0.477013
117.1	0.47632
117.2	0.475628
117.3	0.474937
117.4	0.474249
117.5	0.473561
117.6	0.472879
117.7	0.472199
117.8	0.471519
117.9	0.470838
118	0.47016
118.1	0.469486
118.2	0.468818
118.3	0.468152
118.4	0.467487
118.5	0.466819
118.6	0.466149
118.7	0.465476
118.8	0.464806
118.9	0.464131
119	0.463454
119.1	0.462771
119.2	0.462084
119.3	0.461395
119.4	0.460705
119.5	0.460017
119.6	0.459328
119.7	0.458638
119.8	0.45795
119.9	0.457259
120	0.456568
120.1	0.455876
120.2	0.455191
120.3	0.454509
120.4	0.453834
120.5	0.453157
120.6	0.452476
120.7	0.451797
120.8	0.451117
120.9	0.450438
121	0.44976
121.1	0.449077
121.2	0.448389
121.3	0.447701
121.4	0.447012
121.5	0.446328
121.6	0.445648
121.7	0.44497
121.8	0.44429
121.9	0.443609
122	0.442929
122.1	0.442255
122.2	0.441583
122.3	0.440913
122.4	0.440239
122.5	0.439568
122.6	0.438905
122.7	0.438247
122.8	0.437599
122.9	0.436954
123	0.436311
123.1	0.435671
123.2	0.435028
123.3	0.434381
123.4	0.433734
123.5	0.43309
123.6	0.432446
123.7	0.431803
123.8	0.431163
123.9	0.430528
124	0.42989
124.1	0.429247
124.2	0.428601
124.3	0.427952
124.4	0.427305
124.5	0.426654
124.6	0.426002
124.7	0.425351
124.8	0.424701
124.9	0.424054
125	0.423405
125.1	0.422754
125.2	0.422104
125.3	0.421454
125.4	0.420807
125.5	0.420165
125.6	0.419519
125.7	0.418873
125.8	0.418232
125.9	0.417596
126	0.416952
126.1	0.416307
126.2	0.415657
126.3	0.415004
126.4	0.414349
126.5	0.41369
126.6	0.41303
126.7	0.412369
126.8	0.411708
126.9	0.411045
127	0.410383
127.1	0.409721
127.2	0.409059
127.3	0.408403
127.4	0.40775
127.5	0.407098
127.6	0.406449
127.7	0.405799
127.8	0.405151
127.9	0.404506
128	0.403856
128.1	0.4032
128.2	0.402543
128.3	0.401881
128.4	0.40122
128.5	0.400558
128.6	0.399894
128.7	0.399231
128.8	0.398562
128.9	0.397894
129	0.397229
129.1	0.396559
129.2	0.395886
129.3	0.395212
129.4	0.394539
129.5	0.393871
129.6	0.393203
129.7	0.392537
129.8	0.391868
129.9	0.391198
130	0.390531
130.1	0.389865
130.2	0.389208
130.3	0.388556
130.4	0.387904
130.5	0.387255
130.6	0.386605
130.7	0.385959
130.8	0.385318
130.9	0.38468
131	0.384041
131.1	0.3834
131.2	0.382758
131.3	0.382114
131.4	0.381471
131.5	0.380832
131.6	0.380197
131.7	0.379565
131.8	0.378933
131.9	0.378301
132	0.377665
132.1	0.377029
132.2	0.376398
132.3	0.375775
132.4	0.375149
132.5	0.374522
132.6	0.373894
132.7	0.373268
132.8	0.37264
132.9	0.372013
133	0.37139
133.1	0.370767
133.2	0.370148
133.3	0.369526
133.4	0.368904
133.5	0.36828
133.6	0.367654
133.7	0.367026
133.8	0.366396
133.9	0.365761
134	0.365127
134.1	0.364497
134.2	0.363864
134.3	0.363225
134.4	0.362587
134.5	0.361947
134.6	0.361304
134.7	0.36066
134.8	0.360019
134.9	0.359378
135	0.358737
135.1	0.358099
135.2	0.357461
135.3	0.356828
135.4	0.3562
135.5	0.355579
135.6	0.354962
135.7	0.354347
135.8	0.353735
135.9	0.353127
136	0.35252
136.1	0.35191
136.2	0.351306
136.3	0.350706
136.4	0.350115
136.5	0.349527
136.6	0.348943
136.7	0.348357
136.8	0.34777
136.9	0.347184
137	0.346598
137.1	0.346011
137.2	0.345425
137.3	0.344836
137.4	0.344239
137.5	0.343643
137.6	0.343047
137.7	0.342447
137.8	0.341848
137.9	0.34125
138	0.340656
138.1	0.340066
138.2	0.33948
138.3	0.338897
138.4	0.33831
138.5	0.337716
138.6	0.337118
138.7	0.336522
138.8	0.33593
138.9	0.335339
139	0.334752
139.1	0.334164
139.2	0.333572
139.3	0.332978
139.4	0.332387
139.5	0.3318
139.6	0.331217
139.7	0.330635
139.8	0.33005
139.9	0.329462
140	0.328881
140.1	0.328305
140.2	0.327732
140.3	0.327162
140.4	0.326598
140.5	0.326036
140.6	0.325475
140.7	0.324916
140.8	0.324356
140.9	0.323796
141	0.323237
141.1	0.322682
141.2	0.32213
141.3	0.321578
141.4	0.321021
141.5	0.320462
141.6	0.319899
141.7	0.31934
141.8	0.318779
141.9	0.318218
142	0.317656
142.1	0.317096
142.2	0.31654
142.3	0.315992
142.4	0.315443
142.5	0.314897
142.6	0.314356
142.7	0.313815
142.8	0.313275
142.9	0.312736
143	0.312198
143.1	0.311663
143.2	0.311126
143.3	0.310587
143.4	0.310052
143.5	0.309516
143.6	0.308983
143.7	0.308455
143.8	0.307931
143.9	0.30741
144	0.306894
144.1	0.306385
144.2	0.30588
144.3	0.305374
144.4	0.304865
144.5	0.304353
144.6	0.303842
144.7	0.303333
144.8	0.302831
144.9	0.302334
145	0.301842
145.1	0.301354
145.2	0.300868
145.3	0.300386
145.4	0.299909
145.5	0.29943
145.6	0.298955
145.7	0.298483
145.8	0.298015
145.9	0.297549
146	0.29709
146.1	0.296631
146.2	0.29617
146.3	0.295706
146.4	0.295243
146.5	0.294785
146.6	0.294331
146.7	0.293881
146.8	0.293434
146.9	0.292987
147	0.292543
147.1	0.292099
147.2	0.29165
147.3	0.291198
147.4	0.290748
147.5	0.290301
147.6	0.289855
147.7	0.289409
147.8	0.288969
147.9	0.288531
148	0.288095
148.1	0.287662
148.2	0.287228
