LagTime	Correlation

0	1.71412
0.1	1.70911
0.2	1.70162
0.3	1.69357
0.4	1.68543
0.5	1.67731
0.6	1.66925
0.7	1.66125
0.8	1.65331
0.9	1.64544
1	1.63763
1.1	1.62989
1.2	1.6222
1.3	1.61458
1.4	1.60702
1.5	1.59952
1.6	1.59207
1.7	1.58469
1.8	1.57736
1.9	1.5701
2	1.56289
2.1	1.55574
2.2	1.54865
2.3	1.54161
2.4	1.53463
2.5	1.5277
2.6	1.52082
2.7	1.51399
2.8	1.50721
2.9	1.50049
3	1.49382
3.1	1.4872
3.2	1.48064
3.3	1.47412
3.4	1.46764
3.5	1.46122
3.6	1.45484
3.7	1.44851
3.8	1.44224
3.9	1.43602
4	1.42984
4.1	1.4237
4.2	1.41762
4.3	1.41157
4.4	1.40556
4.5	1.39959
4.6	1.39366
4.7	1.38776
4.8	1.38191
4.9	1.3761
5	1.37033
5.1	1.3646
5.2	1.35892
5.3	1.35328
5.4	1.34767
5.5	1.3421
5.6	1.33657
5.7	1.33107
5.8	1.32561
5.9	1.32019
6	1.3148
6.1	1.30944
6.2	1.30413
6.3	1.29886
6.4	1.29363
6.5	1.28843
6.6	1.28327
6.7	1.27815
6.8	1.27306
6.9	1.268
7	1.26297
7.1	1.25798
7.2	1.25303
7.3	1.24811
7.4	1.24322
7.5	1.23837
7.6	1.23355
7.7	1.22875
7.8	1.22399
7.9	1.21926
8	1.21455
8.1	1.20989
8.2	1.20525
8.3	1.20064
8.4	1.19606
8.5	1.19152
8.6	1.18701
8.7	1.18254
8.8	1.1781
8.9	1.17369
9	1.16931
9.1	1.16496
9.2	1.16064
9.3	1.15635
9.4	1.15208
9.5	1.14784
9.6	1.14363
9.7	1.13942
9.8	1.13524
9.9	1.13108
10	1.12694
10.1	1.12283
10.2	1.11873
10.3	1.11465
10.4	1.1106
10.5	1.10657
10.6	1.10256
10.7	1.09858
10.8	1.09461
10.9	1.09067
11	1.08675
11.1	1.08285
11.2	1.07897
11.3	1.07511
11.4	1.07129
11.5	1.06749
11.6	1.06372
11.7	1.05996
11.8	1.05624
11.9	1.05254
12	1.04886
12.1	1.04521
12.2	1.04158
12.3	1.03797
12.4	1.03438
12.5	1.03081
12.6	1.02725
12.7	1.02372
12.8	1.02022
12.9	1.01673
13	1.01327
13.1	1.00982
13.2	1.00639
13.3	1.00298
13.4	0.999602
13.5	0.996241
13.6	0.992898
13.7	0.989573
13.8	0.986269
13.9	0.982986
14	0.979722
14.1	0.976478
14.2	0.973252
14.3	0.970044
14.4	0.966853
14.5	0.963673
14.6	0.960509
14.7	0.957363
14.8	0.95423
14.9	0.951109
15	0.948008
15.1	0.944924
15.2	0.941857
15.3	0.938802
15.4	0.935763
15.5	0.932739
15.6	0.929728
15.7	0.926732
15.8	0.923756
15.9	0.9208
16	0.917865
16.1	0.914944
16.2	0.912036
16.3	0.909142
16.4	0.906261
16.5	0.903393
16.6	0.900539
16.7	0.8977
16.8	0.894872
16.9	0.892063
17	0.88927
17.1	0.886493
17.2	0.883729
17.3	0.880977
17.4	0.878235
17.5	0.875505
17.6	0.872783
17.7	0.870066
17.8	0.867361
17.9	0.864674
18	0.862003
18.1	0.859346
18.2	0.856702
18.3	0.854069
18.4	0.851454
18.5	0.848853
18.6	0.846266
18.7	0.843694
18.8	0.841133
18.9	0.83858
19	0.836037
19.1	0.833506
19.2	0.830979
19.3	0.828457
19.4	0.825943
19.5	0.823441
19.6	0.820948
19.7	0.818467
19.8	0.815998
19.9	0.813547
20	0.811106
20.1	0.808676
20.2	0.806256
20.3	0.803844
20.4	0.801442
20.5	0.799052
20.6	0.796664
20.7	0.794281
20.8	0.791904
20.9	0.789536
21	0.787182
21.1	0.784842
21.2	0.782513
21.3	0.780186
21.4	0.777864
21.5	0.775556
21.6	0.773258
21.7	0.770973
21.8	0.768702
21.9	0.766444
22	0.764199
22.1	0.761963
22.2	0.759735
22.3	0.757516
22.4	0.755305
22.5	0.753098
22.6	0.7509
22.7	0.748713
22.8	0.746531
22.9	0.744354
23	0.742187
23.1	0.740035
23.2	0.737896
23.3	0.73576
23.4	0.73363
23.5	0.731512
23.6	0.729405
23.7	0.727308
23.8	0.725219
23.9	0.723141
24	0.721071
24.1	0.71901
24.2	0.716951
24.3	0.714898
24.4	0.712857
24.5	0.710825
24.6	0.708801
24.7	0.706784
24.8	0.704776
24.9	0.702778
25	0.700793
25.1	0.698823
25.2	0.696867
25.3	0.694923
25.4	0.692986
25.5	0.691058
25.6	0.689137
25.7	0.687221
25.8	0.68531
25.9	0.683401
26	0.6815
26.1	0.679606
26.2	0.677717
26.3	0.675829
26.4	0.673949
26.5	0.672078
26.6	0.670214
26.7	0.668355
26.8	0.666501
26.9	0.664654
27	0.662811
27.1	0.660971
27.2	0.659139
27.3	0.657311
27.4	0.655491
27.5	0.653679
27.6	0.651878
27.7	0.650083
27.8	0.648299
27.9	0.646525
28	0.644762
28.1	0.643012
28.2	0.641271
28.3	0.639534
28.4	0.637806
28.5	0.636087
28.6	0.634377
28.7	0.632675
28.8	0.630982
28.9	0.629288
29	0.627594
29.1	0.625904
29.2	0.624222
29.3	0.622544
29.4	0.620874
29.5	0.619206
29.6	0.617549
29.7	0.615898
29.8	0.614257
29.9	0.612626
30	0.610998
30.1	0.609378
30.2	0.607768
30.3	0.606171
30.4	0.604581
30.5	0.603002
30.6	0.601429
30.7	0.599862
30.8	0.598296
30.9	0.596733
31	0.595178
31.1	0.59363
31.2	0.59209
31.3	0.590559
31.4	0.589034
31.5	0.587514
31.6	0.585999
31.7	0.584492
31.8	0.582987
31.9	0.581486
32	0.579992
32.1	0.578505
32.2	0.577023
32.3	0.575546
32.4	0.574072
32.5	0.572603
32.6	0.571134
32.7	0.569669
32.8	0.568206
32.9	0.566742
33	0.56528
33.1	0.563825
33.2	0.562379
33.3	0.56094
33.4	0.559502
33.5	0.558067
33.6	0.556637
33.7	0.555209
33.8	0.553786
33.9	0.552373
34	0.550963
34.1	0.549556
34.2	0.548152
34.3	0.546751
34.4	0.545351
34.5	0.543955
34.6	0.542563
34.7	0.541175
34.8	0.53979
34.9	0.538409
35	0.537027
35.1	0.53565
35.2	0.53428
35.3	0.532918
35.4	0.531558
35.5	0.530202
35.6	0.528854
35.7	0.527505
35.8	0.526158
35.9	0.524814
36	0.523477
36.1	0.522147
36.2	0.520825
36.3	0.519507
36.4	0.518192
36.5	0.516873
36.6	0.515555
36.7	0.51424
36.8	0.512927
36.9	0.511621
37	0.510323
37.1	0.509031
37.2	0.507741
37.3	0.506454
37.4	0.505171
37.5	0.503887
37.6	0.502602
37.7	0.501322
37.8	0.500045
37.9	0.498773
38	0.49751
38.1	0.496254
38.2	0.495004
38.3	0.493756
38.4	0.492509
38.5	0.491266
38.6	0.490028
38.7	0.488791
38.8	0.487558
38.9	0.486327
39	0.4851
39.1	0.483876
39.2	0.482653
39.3	0.481435
39.4	0.480223
39.5	0.479016
39.6	0.477808
39.7	0.476601
39.8	0.475401
39.9	0.474207
40	0.473015
40.1	0.471826
40.2	0.470639
40.3	0.469458
40.4	0.468282
40.5	0.467106
40.6	0.465934
40.7	0.464762
40.8	0.463587
40.9	0.462416
41	0.46125
41.1	0.460085
41.2	0.45892
41.3	0.457757
41.4	0.456597
41.5	0.455441
41.6	0.454292
41.7	0.453146
41.8	0.452
41.9	0.450855
42	0.449714
42.1	0.44858
42.2	0.447449
42.3	0.446326
42.4	0.445211
42.5	0.444096
42.6	0.442985
42.7	0.441875
42.8	0.440772
42.9	0.439675
43	0.438589
43.1	0.43751
43.2	0.436433
43.3	0.435357
43.4	0.434283
43.5	0.433208
43.6	0.432133
43.7	0.431057
43.8	0.429984
43.9	0.428915
44	0.427845
44.1	0.426779
44.2	0.425717
44.3	0.424662
44.4	0.423614
44.5	0.422569
44.6	0.421527
44.7	0.420487
44.8	0.419449
44.9	0.418419
45	0.417391
45.1	0.416372
45.2	0.415359
45.3	0.414346
45.4	0.413333
45.5	0.412323
45.6	0.411315
45.7	0.410306
45.8	0.409299
45.9	0.408294
46	0.40729
46.1	0.406288
46.2	0.405288
46.3	0.404297
46.4	0.403312
46.5	0.402326
46.6	0.401337
46.7	0.40035
46.8	0.399362
46.9	0.398379
47	0.397402
47.1	0.396427
47.2	0.395451
47.3	0.394479
47.4	0.393511
47.5	0.392545
47.6	0.391582
47.7	0.390621
47.8	0.389662
47.9	0.388701
48	0.387742
48.1	0.386783
48.2	0.385824
48.3	0.384871
48.4	0.383919
48.5	0.38297
48.6	0.382025
48.7	0.381081
48.8	0.380143
48.9	0.379209
49	0.378279
49.1	0.377351
49.2	0.376424
49.3	0.3755
49.4	0.374575
49.5	0.373649
49.6	0.372721
49.7	0.371797
49.8	0.370873
49.9	0.36995
50	0.369031
50.1	0.368113
50.2	0.3672
50.3	0.366289
50.4	0.36538
50.5	0.364479
50.6	0.363584
50.7	0.362697
50.8	0.361816
50.9	0.360936
51	0.360062
51.1	0.359194
51.2	0.358327
51.3	0.357463
51.4	0.356602
51.5	0.355744
51.6	0.354887
51.7	0.354029
51.8	0.353175
51.9	0.35232
52	0.351467
52.1	0.350618
52.2	0.349775
52.3	0.348935
52.4	0.348097
52.5	0.347263
52.6	0.346427
52.7	0.345595
52.8	0.344768
52.9	0.34394
53	0.343111
53.1	0.342283
53.2	0.341465
53.3	0.340648
53.4	0.33983
53.5	0.339015
53.6	0.338205
53.7	0.337396
53.8	0.336586
53.9	0.335774
54	0.334965
54.1	0.334159
54.2	0.333352
54.3	0.332546
54.4	0.331743
54.5	0.330941
54.6	0.330137
54.7	0.329338
54.8	0.328537
54.9	0.327734
55	0.326929
55.1	0.32613
55.2	0.325338
55.3	0.324545
55.4	0.323751
55.5	0.322958
55.6	0.322166
55.7	0.321373
55.8	0.32058
55.9	0.31979
56	0.319008
56.1	0.318236
56.2	0.317472
56.3	0.316713
56.4	0.315961
56.5	0.315211
56.6	0.314462
56.7	0.313713
56.8	0.312967
56.9	0.312226
57	0.311488
57.1	0.310749
57.2	0.310007
57.3	0.309268
57.4	0.308535
57.5	0.307808
57.6	0.307087
57.7	0.306366
57.8	0.305646
57.9	0.304923
58	0.304202
58.1	0.303481
58.2	0.30276
58.3	0.302035
58.4	0.301311
58.5	0.300584
58.6	0.299862
58.7	0.299147
58.8	0.298433
58.9	0.297719
59	0.296999
59.1	0.296279
59.2	0.295562
59.3	0.294848
59.4	0.294136
59.5	0.293428
59.6	0.292724
59.7	0.292024
59.8	0.291325
59.9	0.290626
60	0.289926
60.1	0.289221
60.2	0.288516
60.3	0.287813
60.4	0.287114
60.5	0.286414
60.6	0.285714
60.7	0.285011
60.8	0.284309
60.9	0.283609
61	0.282907
61.1	0.282203
61.2	0.281499
61.3	0.280798
61.4	0.280103
61.5	0.27941
61.6	0.278714
61.7	0.278021
61.8	0.277334
61.9	0.276652
62	0.275976
62.1	0.275302
62.2	0.274629
62.3	0.273963
62.4	0.273297
62.5	0.272632
62.6	0.271965
62.7	0.271298
62.8	0.270634
62.9	0.269974
63	0.269312
63.1	0.268649
63.2	0.267989
63.3	0.267329
63.4	0.266666
63.5	0.26601
63.6	0.265354
63.7	0.264701
63.8	0.264051
63.9	0.263399
64	0.262747
64.1	0.262097
64.2	0.261448
64.3	0.260798
64.4	0.260152
64.5	0.259511
64.6	0.258871
64.7	0.258229
64.8	0.257588
64.9	0.256951
65	0.256318
65.1	0.255688
65.2	0.25506
65.3	0.254434
65.4	0.253813
65.5	0.253196
65.6	0.252584
65.7	0.251979
65.8	0.251379
65.9	0.250778
66	0.250177
66.1	0.249573
66.2	0.248965
66.3	0.248355
66.4	0.247746
66.5	0.247139
66.6	0.246533
66.7	0.245931
66.8	0.245335
66.9	0.244746
67	0.244162
67.1	0.243584
67.2	0.243008
67.3	0.242436
67.4	0.24187
67.5	0.241313
67.6	0.240764
67.7	0.240216
67.8	0.23967
67.9	0.239121
68	0.238575
68.1	0.238036
68.2	0.237496
68.3	0.236956
68.4	0.236414
68.5	0.235871
68.6	0.235329
68.7	0.234787
68.8	0.234243
68.9	0.233704
69	0.233163
69.1	0.232624
69.2	0.232082
69.3	0.231541
69.4	0.231002
69.5	0.230464
69.6	0.229929
69.7	0.229392
69.8	0.228847
69.9	0.228296
70	0.227749
70.1	0.227207
70.2	0.226671
70.3	0.226132
70.4	0.225596
70.5	0.225063
70.6	0.224531
70.7	0.224
70.8	0.223472
70.9	0.222953
71	0.222439
71.1	0.221928
71.2	0.221417
71.3	0.220906
71.4	0.220395
71.5	0.219886
71.6	0.219377
71.7	0.218867
71.8	0.218354
71.9	0.217844
72	0.217332
72.1	0.216824
72.2	0.216315
72.3	0.215811
72.4	0.215311
72.5	0.214813
72.6	0.214317
72.7	0.213823
72.8	0.213327
72.9	0.212828
73	0.212327
73.1	0.211826
73.2	0.211323
73.3	0.21082
73.4	0.210314
73.5	0.209806
73.6	0.209299
73.7	0.208788
73.8	0.208281
73.9	0.20778
74	0.207282
74.1	0.20679
74.2	0.206298
74.3	0.205805
74.4	0.20531
74.5	0.204816
74.6	0.204321
74.7	0.203829
74.8	0.203341
74.9	0.202853
75	0.202367
75.1	0.201885
75.2	0.2014
75.3	0.200911
75.4	0.200421
75.5	0.199934
75.6	0.199455
75.7	0.19898
75.8	0.1985
75.9	0.198016
76	0.197528
76.1	0.197038
76.2	0.196557
76.3	0.196085
76.4	0.195614
76.5	0.195145
76.6	0.19468
76.7	0.19422
76.8	0.19376
76.9	0.1933
77	0.192838
77.1	0.192379
77.2	0.191923
77.3	0.19147
77.4	0.191018
77.5	0.190566
77.6	0.19012
77.7	0.189679
77.8	0.189235
77.9	0.188791
78	0.188344
78.1	0.187897
78.2	0.187452
78.3	0.187009
78.4	0.186565
78.5	0.18612
78.6	0.185675
78.7	0.185233
78.8	0.184791
78.9	0.18435
79	0.18391
79.1	0.183471
79.2	0.183034
79.3	0.182597
79.4	0.182161
79.5	0.18173
79.6	0.1813
79.7	0.180869
79.8	0.180433
79.9	0.179997
80	0.179565
80.1	0.179135
80.2	0.178705
80.3	0.17828
80.4	0.177856
80.5	0.177436
80.6	0.177017
80.7	0.176595
80.8	0.176173
80.9	0.175751
81	0.175326
81.1	0.174903
81.2	0.174483
81.3	0.174067
81.4	0.17366
81.5	0.17326
81.6	0.172867
81.7	0.172478
81.8	0.17209
81.9	0.171704
82	0.171317
82.1	0.170926
82.2	0.170528
82.3	0.170127
82.4	0.169724
82.5	0.169326
82.6	0.168932
82.7	0.168541
82.8	0.168149
82.9	0.167756
83	0.167361
83.1	0.166962
83.2	0.166562
83.3	0.166162
83.4	0.165764
83.5	0.165371
83.6	0.164984
83.7	0.164595
83.8	0.164206
83.9	0.163815
84	0.163426
84.1	0.163041
84.2	0.162661
84.3	0.16228
84.4	0.161898
84.5	0.161516
84.6	0.161134
84.7	0.160754
84.8	0.160368
84.9	0.159982
85	0.159599
85.1	0.159211
85.2	0.158819
85.3	0.158421
85.4	0.158023
85.5	0.157625
85.6	0.157225
85.7	0.156826
85.8	0.156432
85.9	0.156049
86	0.15567
86.1	0.155296
86.2	0.154926
86.3	0.154562
86.4	0.154202
86.5	0.153847
86.6	0.153494
86.7	0.153144
86.8	0.152796
86.9	0.152446
87	0.1521
87.1	0.151762
87.2	0.151428
87.3	0.151098
87.4	0.150764
87.5	0.150433
87.6	0.150103
87.7	0.149779
87.8	0.149458
87.9	0.149134
88	0.148808
88.1	0.148481
88.2	0.148146
88.3	0.147803
88.4	0.147456
88.5	0.147107
88.6	0.146758
88.7	0.146406
88.8	0.146053
88.9	0.145697
89	0.145339
89.1	0.144982
89.2	0.144628
89.3	0.144273
89.4	0.143916
89.5	0.14356
89.6	0.1432
89.7	0.14283
89.8	0.142454
89.9	0.14208
90	0.141706
90.1	0.141333
90.2	0.140963
90.3	0.140603
90.4	0.140248
90.5	0.139896
90.6	0.139545
90.7	0.139195
90.8	0.138839
90.9	0.138477
91	0.138117
91.1	0.137758
91.2	0.137398
91.3	0.137035
91.4	0.136672
91.5	0.13631
91.6	0.135951
91.7	0.135589
91.8	0.135231
91.9	0.13488
92	0.134538
92.1	0.1342
92.2	0.133864
92.3	0.133527
92.4	0.133187
92.5	0.132843
92.6	0.132504
92.7	0.132173
92.8	0.131847
92.9	0.131526
93	0.131213
93.1	0.1309
93.2	0.130587
93.3	0.130272
93.4	0.129952
93.5	0.12963
93.6	0.129307
93.7	0.128986
93.8	0.128675
93.9	0.128365
94	0.128055
94.1	0.127742
94.2	0.127422
94.3	0.127092
94.4	0.126758
94.5	0.126427
94.6	0.1261
94.7	0.125776
94.8	0.125453
94.9	0.12513
95	0.124807
95.1	0.124484
95.2	0.12416
95.3	0.123836
95.4	0.123518
95.5	0.123201
95.6	0.122887
95.7	0.122576
95.8	0.122263
95.9	0.121949
96	0.121638
96.1	0.12133
96.2	0.121028
96.3	0.120729
96.4	0.120425
96.5	0.120117
96.6	0.119804
96.7	0.119484
96.8	0.11916
96.9	0.118841
97	0.118522
97.1	0.118202
97.2	0.117881
97.3	0.117558
97.4	0.117231
97.5	0.116903
97.6	0.116572
97.7	0.116242
97.8	0.115913
97.9	0.115587
98	0.115263
98.1	0.11494
98.2	0.114614
98.3	0.114284
98.4	0.113949
98.5	0.113613
98.6	0.113277
98.7	0.112941
98.8	0.112614
98.9	0.112288
99	0.111962
99.1	0.111639
99.2	0.111326
99.3	0.111019
99.4	0.110712
99.5	0.110409
99.6	0.110108
99.7	0.109809
99.8	0.109513
99.9	0.109223
100	0.108939
100.1	0.108659
100.2	0.108382
100.3	0.108106
100.4	0.10783
100.5	0.107558
100.6	0.107291
100.7	0.107027
100.8	0.106764
100.9	0.106504
101	0.106243
101.1	0.105983
101.2	0.10572
101.3	0.105451
101.4	0.10518
101.5	0.104906
101.6	0.10463
101.7	0.104352
101.8	0.104071
101.9	0.103789
102	0.103511
102.1	0.103238
102.2	0.102969
102.3	0.102707
102.4	0.102447
102.5	0.10219
102.6	0.101933
102.7	0.101681
102.8	0.101426
102.9	0.101167
103	0.100906
103.1	0.100641
103.2	0.100371
103.3	0.100095
103.4	0.099812
103.5	0.0995304
103.6	0.099249
103.7	0.098968
103.8	0.0986912
103.9	0.0984222
104	0.0981609
104.1	0.0979027
104.2	0.0976468
104.3	0.0973935
104.4	0.0971362
104.5	0.0968757
104.6	0.0966117
104.7	0.0963521
104.8	0.0960961
104.9	0.0958418
105	0.0955928
105.1	0.095348
105.2	0.0951033
105.3	0.0948557
105.4	0.0946048
105.5	0.094354
105.6	0.0941079
105.7	0.0938634
105.8	0.0936194
105.9	0.0933786
106	0.0931414
106.1	0.0929092
106.2	0.092678
106.3	0.0924477
106.4	0.0922167
106.5	0.0919827
106.6	0.0917452
106.7	0.0915117
106.8	0.0912795
106.9	0.091045
107	0.0908086
107.1	0.0905706
107.2	0.0903336
107.3	0.0900978
107.4	0.0898643
107.5	0.0896334
107.6	0.0894037
107.7	0.0891721
107.8	0.0889401
107.9	0.088708
108	0.0884755
108.1	0.0882489
108.2	0.0880213
108.3	0.0877917
108.4	0.0875607
108.5	0.0873352
108.6	0.0871158
108.7	0.0868996
108.8	0.0866763
108.9	0.0864441
109	0.0862083
109.1	0.0859683
109.2	0.0857284
109.3	0.0854884
109.4	0.0852482
109.5	0.0850085
109.6	0.0847684
109.7	0.0845305
109.8	0.0842925
109.9	0.0840481
110	0.0837996
110.1	0.0835494
110.2	0.0833035
110.3	0.0830531
110.4	0.082801
110.5	0.0825505
110.6	0.082306
110.7	0.0820638
110.8	0.081829
110.9	0.0815988
111	0.0813694
111.1	0.0811398
111.2	0.0809128
111.3	0.0806864
111.4	0.0804647
111.5	0.0802445
111.6	0.0800203
111.7	0.0797906
111.8	0.079557
111.9	0.0793244
112	0.0790924
112.1	0.078857
112.2	0.0786206
112.3	0.0783859
112.4	0.0781511
112.5	0.0779154
112.6	0.0776797
112.7	0.0774448
112.8	0.077209
112.9	0.0769755
113	0.0767433
113.1	0.0765172
113.2	0.0762962
113.3	0.0760799
113.4	0.0758696
113.5	0.0756618
113.6	0.0754536
113.7	0.0752414
113.8	0.0750291
113.9	0.0748232
114	0.0746186
114.1	0.0744186
114.2	0.0742194
114.3	0.0740156
114.4	0.0738112
114.5	0.0736065
114.6	0.073401
114.7	0.073198
114.8	0.0729927
114.9	0.0727865
115	0.0725757
115.1	0.0723612
115.2	0.072148
115.3	0.0719338
115.4	0.0717158
115.5	0.0714924
115.6	0.0712708
115.7	0.0710436
115.8	0.0708143
115.9	0.0705859
116	0.070357
116.1	0.0701264
116.2	0.0698933
116.3	0.0696604
116.4	0.0694306
116.5	0.0692029
116.6	0.0689771
116.7	0.0687548
116.8	0.0685405
116.9	0.0683307
117	0.068126
117.1	0.0679225
117.2	0.0677201
117.3	0.0675167
117.4	0.067312
117.5	0.0671069
117.6	0.0669013
117.7	0.0666966
117.8	0.0664954
117.9	0.0662963
118	0.0660998
118.1	0.0659028
118.2	0.0657036
118.3	0.0655077
118.4	0.0653148
118.5	0.0651247
118.6	0.0649368
118.7	0.0647485
118.8	0.0645568
118.9	0.0643625
119	0.0641662
119.1	0.0639702
119.2	0.0637742
119.3	0.0635793
119.4	0.0633883
119.5	0.0631953
119.6	0.0630034
119.7	0.0628131
119.8	0.0626242
119.9	0.0624346
120	0.0622464
120.1	0.0620604
120.2	0.0618789
120.3	0.0616993
120.4	0.0615253
120.5	0.0613559
120.6	0.0611861
120.7	0.061011
120.8	0.0608334
120.9	0.060653
121	0.0604718
121.1	0.0602912
121.2	0.0601074
121.3	0.0599243
121.4	0.0597397
121.5	0.0595548
121.6	0.0593698
121.7	0.0591852
121.8	0.0589979
121.9	0.0588107
122	0.0586292
122.1	0.0584547
122.2	0.0582834
122.3	0.0581116
122.4	0.0579389
122.5	0.05777
122.6	0.0576013
122.7	0.0574324
122.8	0.0572672
122.9	0.0571081
123	0.0569547
123.1	0.056803
123.2	0.056656
123.3	0.0565153
123.4	0.0563744
123.5	0.0562341
123.6	0.0560933
123.7	0.0559502
123.8	0.0558048
123.9	0.055658
124	0.0555069
124.1	0.0553505
124.2	0.0551916
124.3	0.05503
124.4	0.0548676
124.5	0.0547044
124.6	0.0545409
124.7	0.0543848
124.8	0.0542328
124.9	0.054077
125	0.0539192
125.1	0.0537597
125.2	0.0535969
125.3	0.0534337
125.4	0.0532767
125.5	0.053126
125.6	0.0529769
125.7	0.0528286
125.8	0.0526798
125.9	0.0525363
126	0.0523954
126.1	0.0522639
126.2	0.0521389
126.3	0.0520166
126.4	0.0518949
126.5	0.0517717
126.6	0.0516421
126.7	0.0515072
126.8	0.0513755
126.9	0.05124
127	0.0511008
127.1	0.0509593
127.2	0.0508214
127.3	0.0506868
127.4	0.0505538
127.5	0.0504178
127.6	0.0502789
127.7	0.0501383
127.8	0.0499981
127.9	0.0498598
128	0.0497214
128.1	0.0495814
128.2	0.0494415
128.3	0.0493028
128.4	0.0491577
128.5	0.0490189
128.6	0.0488853
128.7	0.0487598
128.8	0.0486379
128.9	0.0485148
129	0.0483918
129.1	0.0482703
129.2	0.0481493
129.3	0.0480243
129.4	0.0478983
129.5	0.0477687
129.6	0.0476424
129.7	0.0475175
129.8	0.0473979
129.9	0.0472833
130	0.0471693
130.1	0.0470553
130.2	0.0469419
130.3	0.0468372
130.4	0.0467398
130.5	0.0466462
130.6	0.046546
130.7	0.0464389
130.8	0.0463292
130.9	0.0462181
131	0.0461082
131.1	0.0460008
131.2	0.045899
131.3	0.045798
131.4	0.0456929
131.5	0.0455908
131.6	0.0454913
131.7	0.0453902
131.8	0.0452799
131.9	0.0451617
132	0.0450419
132.1	0.0449196
132.2	0.0447951
132.3	0.0446667
132.4	0.0445371
132.5	0.0444074
132.6	0.0442774
132.7	0.0441438
132.8	0.0440082
132.9	0.0438689
133	0.0437276
133.1	0.0435845
133.2	0.0434393
133.3	0.0432969
133.4	0.043157
133.5	0.0430142
133.6	0.0428676
133.7	0.0427198
133.8	0.0425707
133.9	0.0424225
134	0.0422763
134.1	0.042136
134.2	0.0419982
134.3	0.0418626
134.4	0.0417268
134.5	0.0415893
134.6	0.0414516
134.7	0.0413105
134.8	0.0411674
134.9	0.0410233
135	0.0408809
135.1	0.0407362
135.2	0.0405922
135.3	0.0404476
135.4	0.0403004
135.5	0.0401559
135.6	0.0400143
135.7	0.0398778
135.8	0.0397358
135.9	0.0395928
136	0.0394546
136.1	0.0393204
136.2	0.0391842
136.3	0.0390492
136.4	0.0389164
136.5	0.0387856
136.6	0.0386508
136.7	0.03851
136.8	0.0383604
136.9	0.0382055
137	0.0380516
137.1	0.0379016
137.2	0.0377555
137.3	0.0376111
137.4	0.0374734
137.5	0.0373442
137.6	0.0372227
137.7	0.0371091
137.8	0.0370004
137.9	0.0368913
138	0.0367836
138.1	0.0366802
138.2	0.0365765
138.3	0.0364726
138.4	0.0363774
138.5	0.0362842
138.6	0.0361921
138.7	0.0360945
138.8	0.0359874
138.9	0.0358731
139	0.0357603
139.1	0.035651
139.2	0.0355459
139.3	0.0354429
139.4	0.035339
139.5	0.0352406
139.6	0.0351501
139.7	0.0350663
139.8	0.034983
139.9	0.0348964
140	0.034809
140.1	0.0347206
140.2	0.0346315
140.3	0.0345376
140.4	0.0344377
140.5	0.034336
140.6	0.0342329
140.7	0.0341329
140.8	0.0340349
140.9	0.0339438
141	0.033852
141.1	0.0337587
141.2	0.0336669
141.3	0.0335789
141.4	0.0334941
141.5	0.0334141
141.6	0.0333354
141.7	0.0332627
