LagTime	Correlation

0	1.62275
0.1	1.61773
0.2	1.61023
0.3	1.60216
0.4	1.59399
0.5	1.58587
0.6	1.57781
0.7	1.56981
0.8	1.56188
0.9	1.55402
1	1.54622
1.1	1.53848
1.2	1.53081
1.3	1.52319
1.4	1.51563
1.5	1.50814
1.6	1.50071
1.7	1.49335
1.8	1.48604
1.9	1.47879
2	1.47158
2.1	1.46444
2.2	1.45735
2.3	1.45031
2.4	1.44334
2.5	1.43642
2.6	1.42955
2.7	1.42274
2.8	1.41599
2.9	1.4093
3	1.40265
3.1	1.39606
3.2	1.38952
3.3	1.38303
3.4	1.37659
3.5	1.37021
3.6	1.36387
3.7	1.35757
3.8	1.35133
3.9	1.34513
4	1.33898
4.1	1.33287
4.2	1.32681
4.3	1.3208
4.4	1.31483
4.5	1.3089
4.6	1.30301
4.7	1.29717
4.8	1.29137
4.9	1.28561
5	1.27989
5.1	1.27422
5.2	1.26859
5.3	1.26301
5.4	1.25747
5.5	1.25197
5.6	1.24651
5.7	1.24108
5.8	1.2357
5.9	1.23036
6	1.22506
6.1	1.2198
6.2	1.21457
6.3	1.20938
6.4	1.20422
6.5	1.1991
6.6	1.19402
6.7	1.18898
6.8	1.18397
6.9	1.17901
7	1.17408
7.1	1.16919
7.2	1.16433
7.3	1.1595
7.4	1.1547
7.5	1.14993
7.6	1.1452
7.7	1.1405
7.8	1.13583
7.9	1.1312
8	1.1266
8.1	1.12203
8.2	1.1175
8.3	1.11299
8.4	1.10851
8.5	1.10407
8.6	1.09965
8.7	1.09526
8.8	1.0909
8.9	1.08656
9	1.08226
9.1	1.07799
9.2	1.07374
9.3	1.06953
9.4	1.06535
9.5	1.06119
9.6	1.05706
9.7	1.05296
9.8	1.0489
9.9	1.04486
10	1.04084
10.1	1.03684
10.2	1.03287
10.3	1.02892
10.4	1.025
10.5	1.0211
10.6	1.01723
10.7	1.01338
10.8	1.00956
10.9	1.00576
11	1.00199
11.1	0.998235
11.2	0.994501
11.3	0.990787
11.4	0.987099
11.5	0.983439
11.6	0.979804
11.7	0.976194
11.8	0.972604
11.9	0.969031
12	0.965474
12.1	0.961938
12.2	0.958421
12.3	0.954923
12.4	0.951442
12.5	0.947977
12.6	0.944532
12.7	0.941117
12.8	0.937728
12.9	0.934359
13	0.931008
13.1	0.92767
13.2	0.92435
13.3	0.921045
13.4	0.917758
13.5	0.914485
13.6	0.911236
13.7	0.908009
13.8	0.904802
13.9	0.901611
14	0.898439
14.1	0.895287
14.2	0.892154
14.3	0.889042
14.4	0.885943
14.5	0.882856
14.6	0.879787
14.7	0.876734
14.8	0.873696
14.9	0.870671
15	0.867661
15.1	0.864663
15.2	0.861678
15.3	0.858709
15.4	0.855758
15.5	0.852827
15.6	0.849915
15.7	0.847019
15.8	0.844138
15.9	0.841273
16	0.838427
16.1	0.8356
16.2	0.832791
16.3	0.829998
16.4	0.827228
16.5	0.824471
16.6	0.821733
16.7	0.819009
16.8	0.816299
16.9	0.813604
17	0.810918
17.1	0.808242
17.2	0.805584
17.3	0.802943
17.4	0.800316
17.5	0.797699
17.6	0.795094
17.7	0.792503
17.8	0.789926
17.9	0.787357
18	0.784796
18.1	0.782247
18.2	0.779708
18.3	0.777182
18.4	0.774664
18.5	0.772154
18.6	0.769659
18.7	0.767174
18.8	0.764697
18.9	0.762224
19	0.759761
19.1	0.75731
19.2	0.754866
19.3	0.752437
19.4	0.750024
19.5	0.747631
19.6	0.745261
19.7	0.742909
19.8	0.740572
19.9	0.73825
20	0.735938
20.1	0.733635
20.2	0.731343
20.3	0.729064
20.4	0.7268
20.5	0.72455
20.6	0.72231
20.7	0.720082
20.8	0.717865
20.9	0.715663
21	0.713474
21.1	0.711301
21.2	0.709143
21.3	0.706999
21.4	0.704862
21.5	0.70273
21.6	0.700606
21.7	0.698493
21.8	0.696386
21.9	0.694285
22	0.692191
22.1	0.690104
22.2	0.688026
22.3	0.685956
22.4	0.683894
22.5	0.681838
22.6	0.67979
22.7	0.677749
22.8	0.675714
22.9	0.673684
23	0.671658
23.1	0.669638
23.2	0.667626
23.3	0.665625
23.4	0.663638
23.5	0.661661
23.6	0.659702
23.7	0.657751
23.8	0.655809
23.9	0.653875
24	0.651949
24.1	0.650036
24.2	0.648134
24.3	0.646238
24.4	0.64435
24.5	0.642472
24.6	0.640606
24.7	0.638752
24.8	0.63691
24.9	0.635078
25	0.633255
25.1	0.631446
25.2	0.629649
25.3	0.627863
25.4	0.626088
25.5	0.624321
25.6	0.622558
25.7	0.6208
25.8	0.619046
25.9	0.617294
26	0.615552
26.1	0.613826
26.2	0.612113
26.3	0.610403
26.4	0.608697
26.5	0.606993
26.6	0.605293
26.7	0.603603
26.8	0.601919
26.9	0.600245
27	0.59858
27.1	0.596921
27.2	0.595267
27.3	0.593613
27.4	0.591961
27.5	0.590316
27.6	0.588682
27.7	0.587061
27.8	0.585451
27.9	0.583844
28	0.582246
28.1	0.580654
28.2	0.579074
28.3	0.577502
28.4	0.575935
28.5	0.574372
28.6	0.572811
28.7	0.571249
28.8	0.569683
28.9	0.568118
29	0.566559
29.1	0.565007
29.2	0.563466
29.3	0.561933
29.4	0.56041
29.5	0.558894
29.6	0.557381
29.7	0.555871
29.8	0.554363
29.9	0.552858
30	0.551358
30.1	0.549859
30.2	0.548366
30.3	0.546874
30.4	0.54539
30.5	0.543913
30.6	0.542438
30.7	0.54096
30.8	0.539479
30.9	0.538001
31	0.536526
31.1	0.535059
31.2	0.533601
31.3	0.532145
31.4	0.530692
31.5	0.529243
31.6	0.5278
31.7	0.526365
31.8	0.524939
31.9	0.52352
32	0.522099
32.1	0.520681
32.2	0.519272
32.3	0.517874
32.4	0.516482
32.5	0.515095
32.6	0.513715
32.7	0.512342
32.8	0.510975
32.9	0.509608
33	0.508245
33.1	0.506883
33.2	0.505522
33.3	0.504159
33.4	0.502798
33.5	0.501438
33.6	0.500082
33.7	0.498732
33.8	0.497388
33.9	0.496054
34	0.494725
34.1	0.493405
34.2	0.4921
34.3	0.490807
34.4	0.489519
34.5	0.488236
34.6	0.486955
34.7	0.485675
34.8	0.484396
34.9	0.483123
35	0.48185
35.1	0.480578
35.2	0.479305
35.3	0.478037
35.4	0.476774
35.5	0.475512
35.6	0.474255
35.7	0.473002
35.8	0.471755
35.9	0.470514
36	0.469278
36.1	0.468044
36.2	0.46681
36.3	0.465577
36.4	0.464347
36.5	0.463124
36.6	0.461911
36.7	0.460706
36.8	0.459512
36.9	0.458328
37	0.457146
37.1	0.455966
37.2	0.454788
37.3	0.453616
37.4	0.452447
37.5	0.451281
37.6	0.45012
37.7	0.448968
37.8	0.447824
37.9	0.446689
38	0.445557
38.1	0.444426
38.2	0.443297
38.3	0.442173
38.4	0.441052
38.5	0.439935
38.6	0.438819
38.7	0.437702
38.8	0.436585
38.9	0.435467
39	0.434348
39.1	0.433233
39.2	0.432125
39.3	0.431027
39.4	0.429939
39.5	0.428859
39.6	0.427781
39.7	0.426708
39.8	0.425648
39.9	0.424597
40	0.423549
40.1	0.422506
40.2	0.421467
40.3	0.420426
40.4	0.419386
40.5	0.418345
40.6	0.417305
40.7	0.416264
40.8	0.415222
40.9	0.414182
41	0.413141
41.1	0.412099
41.2	0.411056
41.3	0.410013
41.4	0.408976
41.5	0.407947
41.6	0.406923
41.7	0.405904
41.8	0.404889
41.9	0.403873
42	0.40286
42.1	0.40185
42.2	0.400848
42.3	0.399849
42.4	0.398853
42.5	0.397861
42.6	0.396868
42.7	0.395882
42.8	0.394896
42.9	0.39391
43	0.392922
43.1	0.391934
43.2	0.390948
43.3	0.389964
43.4	0.388982
43.5	0.387998
43.6	0.387014
43.7	0.386035
43.8	0.385061
43.9	0.384091
44	0.383128
44.1	0.382174
44.2	0.381225
44.3	0.380279
44.4	0.379331
44.5	0.378384
44.6	0.377438
44.7	0.376491
44.8	0.375545
44.9	0.374603
45	0.373664
45.1	0.372729
45.2	0.3718
45.3	0.37088
45.4	0.369964
45.5	0.369053
45.6	0.368142
45.7	0.367233
45.8	0.366326
45.9	0.365422
46	0.36452
46.1	0.363621
46.2	0.362719
46.3	0.361823
46.4	0.360931
46.5	0.360047
46.6	0.359167
46.7	0.358291
46.8	0.357421
46.9	0.356558
47	0.355695
47.1	0.354834
47.2	0.353973
47.3	0.353114
47.4	0.352255
47.5	0.351397
47.6	0.350543
47.7	0.349692
47.8	0.348848
47.9	0.348009
48	0.347177
48.1	0.346346
48.2	0.345517
48.3	0.344691
48.4	0.343869
48.5	0.343053
48.6	0.342246
48.7	0.341451
48.8	0.340662
48.9	0.339876
49	0.339088
49.1	0.3383
49.2	0.337515
49.3	0.336729
49.4	0.335941
49.5	0.335161
49.6	0.334383
49.7	0.333608
49.8	0.332833
49.9	0.332062
50	0.331288
50.1	0.330516
50.2	0.329743
50.3	0.328975
50.4	0.328212
50.5	0.327452
50.6	0.326699
50.7	0.325949
50.8	0.325201
50.9	0.324452
51	0.323701
51.1	0.322949
51.2	0.322198
51.3	0.32145
51.4	0.320704
51.5	0.319959
51.6	0.319217
51.7	0.318475
51.8	0.317734
51.9	0.316997
52	0.316267
52.1	0.315535
52.2	0.314804
52.3	0.314076
52.4	0.313349
52.5	0.31262
52.6	0.311886
52.7	0.31115
52.8	0.310416
52.9	0.309682
53	0.308947
53.1	0.30821
53.2	0.307471
53.3	0.306736
53.4	0.306003
53.5	0.30527
53.6	0.304536
53.7	0.303802
53.8	0.30307
53.9	0.302345
54	0.301615
54.1	0.300883
54.2	0.300154
54.3	0.299427
54.4	0.298702
54.5	0.297983
54.6	0.297274
54.7	0.296571
54.8	0.295869
54.9	0.295171
55	0.29447
55.1	0.29377
55.2	0.293071
55.3	0.292372
55.4	0.291675
55.5	0.290982
55.6	0.29029
55.7	0.289604
55.8	0.288919
55.9	0.288233
56	0.287547
56.1	0.286854
56.2	0.286155
56.3	0.285456
56.4	0.284756
56.5	0.28406
56.6	0.283363
56.7	0.282667
56.8	0.281967
56.9	0.281269
57	0.280572
57.1	0.279873
57.2	0.279175
57.3	0.27848
57.4	0.277789
57.5	0.277096
57.6	0.276405
57.7	0.275719
57.8	0.275039
57.9	0.27436
58	0.27369
58.1	0.273022
58.2	0.272358
58.3	0.271699
58.4	0.271037
58.5	0.270374
58.6	0.269711
58.7	0.269047
58.8	0.268385
58.9	0.267726
59	0.267066
59.1	0.266413
59.2	0.265763
59.3	0.26512
59.4	0.264481
59.5	0.263845
59.6	0.263216
59.7	0.26259
59.8	0.261961
59.9	0.261331
60	0.260702
60.1	0.260078
60.2	0.259455
60.3	0.258829
60.4	0.258205
60.5	0.257581
60.6	0.25696
60.7	0.256341
60.8	0.255722
60.9	0.255107
61	0.254494
61.1	0.253887
61.2	0.25328
61.3	0.252676
61.4	0.252071
61.5	0.251463
61.6	0.250854
61.7	0.250242
61.8	0.249628
61.9	0.249012
62	0.248394
62.1	0.247767
62.2	0.247135
62.3	0.246508
62.4	0.24588
62.5	0.245253
62.6	0.244622
62.7	0.243992
62.8	0.243366
62.9	0.242748
63	0.242132
63.1	0.241516
63.2	0.240904
63.3	0.240297
63.4	0.239699
63.5	0.239102
63.6	0.238512
63.7	0.237929
63.8	0.237354
63.9	0.236777
64	0.236202
64.1	0.235627
64.2	0.235053
64.3	0.234477
64.4	0.233903
64.5	0.233331
64.6	0.23276
64.7	0.232189
64.8	0.231621
64.9	0.231056
65	0.230489
65.1	0.229925
65.2	0.229364
65.3	0.228804
65.4	0.228244
65.5	0.227689
65.6	0.22714
65.7	0.226591
65.8	0.226047
65.9	0.225501
66	0.224956
66.1	0.224412
66.2	0.223867
66.3	0.223326
66.4	0.222795
66.5	0.222272
66.6	0.221749
66.7	0.221228
66.8	0.220706
66.9	0.220188
67	0.219673
67.1	0.219161
67.2	0.218653
67.3	0.218146
67.4	0.217637
67.5	0.217124
67.6	0.216608
67.7	0.216093
67.8	0.215578
67.9	0.215068
68	0.21456
68.1	0.214053
68.2	0.213547
68.3	0.21304
68.4	0.212535
68.5	0.212031
68.6	0.211526
68.7	0.21102
68.8	0.210513
68.9	0.210008
69	0.209508
69.1	0.209013
69.2	0.208519
69.3	0.208026
69.4	0.207529
69.5	0.207032
69.6	0.206535
69.7	0.206043
69.8	0.205551
69.9	0.205064
70	0.204589
70.1	0.204116
70.2	0.203651
70.3	0.203187
70.4	0.202725
70.5	0.202262
70.6	0.201802
70.7	0.201343
70.8	0.200886
70.9	0.200423
71	0.199953
71.1	0.199481
71.2	0.199009
71.3	0.198536
71.4	0.198058
71.5	0.197582
71.6	0.19711
71.7	0.19664
71.8	0.196174
71.9	0.195708
72	0.19524
72.1	0.19477
72.2	0.194301
72.3	0.193837
72.4	0.193381
72.5	0.19293
72.6	0.192482
72.7	0.192036
72.8	0.191589
72.9	0.19114
73	0.19069
73.1	0.190241
73.2	0.189801
73.3	0.189367
73.4	0.188935
73.5	0.188506
73.6	0.188082
73.7	0.18766
73.8	0.187234
73.9	0.186807
74	0.186383
74.1	0.185965
74.2	0.185555
74.3	0.185149
74.4	0.184749
74.5	0.184357
74.6	0.183972
74.7	0.183591
74.8	0.183219
74.9	0.18285
75	0.182484
75.1	0.182122
75.2	0.181766
75.3	0.181413
75.4	0.181064
75.5	0.180714
75.6	0.180364
75.7	0.18001
75.8	0.179654
75.9	0.179299
76	0.178947
76.1	0.178601
76.2	0.178263
76.3	0.177929
76.4	0.177592
76.5	0.177258
76.6	0.176926
76.7	0.176591
76.8	0.176258
76.9	0.175922
77	0.175583
77.1	0.175245
77.2	0.174909
77.3	0.174574
77.4	0.174238
77.5	0.173896
77.6	0.173547
77.7	0.173194
77.8	0.17284
77.9	0.172485
78	0.17213
78.1	0.171781
78.2	0.171432
78.3	0.171077
78.4	0.170718
78.5	0.170358
78.6	0.169998
78.7	0.169636
78.8	0.169267
78.9	0.168897
79	0.168526
79.1	0.168156
79.2	0.167784
79.3	0.167412
79.4	0.167033
79.5	0.166651
79.6	0.166264
79.7	0.165875
79.8	0.165489
79.9	0.165108
80	0.164735
80.1	0.164368
80.2	0.164004
80.3	0.163642
80.4	0.163278
80.5	0.162916
80.6	0.162557
80.7	0.162202
80.8	0.16185
80.9	0.161503
81	0.161155
81.1	0.160806
81.2	0.160456
81.3	0.160107
81.4	0.159758
81.5	0.159414
81.6	0.159073
81.7	0.158737
81.8	0.158398
81.9	0.158058
82	0.157713
82.1	0.157369
82.2	0.157026
82.3	0.15669
82.4	0.156356
82.5	0.156027
82.6	0.155695
82.7	0.155361
82.8	0.155021
82.9	0.154684
83	0.15435
83.1	0.154022
83.2	0.153693
83.3	0.153359
83.4	0.153026
83.5	0.152696
83.6	0.152368
83.7	0.152041
83.8	0.151718
83.9	0.151398
84	0.151082
84.1	0.150773
84.2	0.150465
84.3	0.150161
84.4	0.149858
84.5	0.149556
84.6	0.149258
84.7	0.148961
84.8	0.148669
84.9	0.14838
85	0.14809
85.1	0.147798
85.2	0.1475
85.3	0.147205
85.4	0.146909
85.5	0.146615
85.6	0.14632
85.7	0.146025
85.8	0.145734
85.9	0.145445
86	0.145158
86.1	0.144868
86.2	0.144579
86.3	0.14429
86.4	0.144002
86.5	0.143712
86.6	0.143424
86.7	0.14314
86.8	0.142863
86.9	0.14259
87	0.14232
87.1	0.142046
87.2	0.141767
87.3	0.141487
87.4	0.141207
87.5	0.140926
87.6	0.140652
87.7	0.140382
87.8	0.140116
87.9	0.139849
88	0.139578
88.1	0.139312
88.2	0.139045
88.3	0.138779
88.4	0.138512
88.5	0.138247
88.6	0.137984
88.7	0.137724
88.8	0.137463
88.9	0.137202
89	0.136944
89.1	0.136689
89.2	0.136435
89.3	0.136177
89.4	0.135916
89.5	0.135645
89.6	0.135372
89.7	0.135093
89.8	0.134814
89.9	0.134534
90	0.134249
90.1	0.133967
90.2	0.133687
90.3	0.133408
90.4	0.133134
90.5	0.132867
90.6	0.132604
90.7	0.132343
90.8	0.132086
90.9	0.131832
91	0.131579
91.1	0.131322
91.2	0.131068
91.3	0.130813
91.4	0.130555
91.5	0.130298
91.6	0.130039
91.7	0.129784
91.8	0.129527
91.9	0.129265
92	0.129002
92.1	0.128731
92.2	0.128459
92.3	0.128184
92.4	0.127908
92.5	0.127633
92.6	0.127358
92.7	0.127078
92.8	0.126792
92.9	0.126504
93	0.126218
93.1	0.125935
93.2	0.125653
93.3	0.125374
93.4	0.125092
93.5	0.124808
93.6	0.124521
93.7	0.124236
93.8	0.123951
93.9	0.123672
94	0.123398
94.1	0.123124
94.2	0.122848
94.3	0.122576
94.4	0.122305
94.5	0.122037
94.6	0.121777
94.7	0.121514
94.8	0.12125
94.9	0.120987
95	0.120726
95.1	0.120462
95.2	0.120202
95.3	0.119945
95.4	0.119686
95.5	0.119426
95.6	0.119171
95.7	0.118918
95.8	0.118663
95.9	0.118404
96	0.11815
96.1	0.117898
96.2	0.117655
96.3	0.117415
96.4	0.117179
96.5	0.116947
96.6	0.116717
96.7	0.116484
96.8	0.116252
96.9	0.116021
97	0.11579
97.1	0.115562
97.2	0.115335
97.3	0.115107
97.4	0.114871
97.5	0.11463
97.6	0.114385
97.7	0.114131
97.8	0.113873
97.9	0.113616
98	0.11336
98.1	0.113099
98.2	0.112837
98.3	0.112573
98.4	0.112309
98.5	0.112044
98.6	0.11178
98.7	0.111519
98.8	0.11126
98.9	0.111005
99	0.11075
99.1	0.110494
99.2	0.110236
99.3	0.109977
99.4	0.10972
99.5	0.10947
99.6	0.109221
99.7	0.108976
99.8	0.108736
99.9	0.1085
100	0.108258
100.1	0.108013
100.2	0.107765
100.3	0.107516
100.4	0.107263
100.5	0.107011
100.6	0.106759
100.7	0.106509
100.8	0.106263
100.9	0.106014
101	0.105761
101.1	0.105509
101.2	0.10526
101.3	0.105013
101.4	0.104766
101.5	0.10452
101.6	0.104273
101.7	0.104022
101.8	0.103776
101.9	0.103534
102	0.103295
102.1	0.103063
102.2	0.102831
102.3	0.102597
102.4	0.102367
102.5	0.102135
102.6	0.101903
102.7	0.101664
102.8	0.101421
102.9	0.101181
103	0.10094
103.1	0.100693
103.2	0.100444
103.3	0.100191
103.4	0.0999384
103.5	0.0996857
103.6	0.0994237
103.7	0.0991594
103.8	0.0988965
103.9	0.0986319
104	0.0983643
104.1	0.0980967
104.2	0.0978298
104.3	0.0975621
104.4	0.0972994
104.5	0.0970361
104.6	0.0967732
104.7	0.0965106
104.8	0.0962508
104.9	0.0959915
105	0.0957309
105.1	0.0954729
105.2	0.0952174
105.3	0.0949663
105.4	0.0947137
105.5	0.0944612
105.6	0.0942112
105.7	0.0939636
105.8	0.0937207
105.9	0.0934808
106	0.0932378
106.1	0.0929932
106.2	0.0927417
106.3	0.0924845
106.4	0.0922272
106.5	0.09197
106.6	0.0917114
106.7	0.0914521
106.8	0.0911942
106.9	0.0909322
107	0.0906673
107.1	0.0904051
107.2	0.0901492
107.3	0.0898935
107.4	0.0896404
107.5	0.0893864
107.6	0.089136
107.7	0.0888809
107.8	0.0886198
107.9	0.0883563
108	0.0880928
108.1	0.0878265
108.2	0.0875627
108.3	0.0873044
108.4	0.0870452
108.5	0.0867823
108.6	0.0865183
108.7	0.0862597
108.8	0.0860043
108.9	0.0857494
109	0.0854996
109.1	0.085255
109.2	0.08501
109.3	0.0847653
109.4	0.0845169
109.5	0.0842737
109.6	0.0840318
109.7	0.083798
109.8	0.0835706
109.9	0.0833473
110	0.0831259
110.1	0.0828997
110.2	0.0826698
110.3	0.0824394
110.4	0.0822075
110.5	0.0819744
110.6	0.0817381
110.7	0.0814957
110.8	0.0812518
110.9	0.0810084
111	0.0807688
111.1	0.0805353
111.2	0.0803054
111.3	0.0800796
111.4	0.0798586
111.5	0.0796374
111.6	0.0794216
111.7	0.0792081
111.8	0.0789975
111.9	0.0787854
112	0.0785675
112.1	0.0783479
112.2	0.0781283
112.3	0.0779093
112.4	0.0776924
112.5	0.0774809
112.6	0.0772711
112.7	0.0770623
112.8	0.0768547
112.9	0.0766515
113	0.0764548
113.1	0.0762624
113.2	0.0760715
113.3	0.0758809
113.4	0.0756924
113.5	0.0755073
113.6	0.0753258
113.7	0.0751499
113.8	0.074974
113.9	0.0747972
114	0.0746189
114.1	0.0744426
114.2	0.074266
114.3	0.0740838
114.4	0.0738986
114.5	0.0737136
114.6	0.0735301
114.7	0.0733512
114.8	0.07317
114.9	0.0729856
115	0.072799
115.1	0.0726172
115.2	0.072435
115.3	0.0722539
115.4	0.0720751
115.5	0.0718958
115.6	0.0717158
115.7	0.0715307
115.8	0.0713443
115.9	0.0711601
116	0.0709806
116.1	0.0708049
116.2	0.0706309
116.3	0.0704558
116.4	0.0702819
116.5	0.070108
116.6	0.0699326
116.7	0.0697614
116.8	0.069593
116.9	0.069431
117	0.069264
117.1	0.0690961
117.2	0.0689219
117.3	0.0687408
117.4	0.0685569
117.5	0.06837
117.6	0.0681817
117.7	0.0679908
117.8	0.0678013
117.9	0.0676145
118	0.067425
118.1	0.0672338
118.2	0.0670397
118.3	0.066846
118.4	0.066656
118.5	0.0664679
118.6	0.066284
118.7	0.0661011
118.8	0.0659159
118.9	0.0657362
119	0.0655635
119.1	0.0653944
119.2	0.0652258
119.3	0.0650543
119.4	0.064883
119.5	0.0647108
119.6	0.0645382
119.7	0.0643674
119.8	0.0641987
119.9	0.0640319
120	0.0638676
120.1	0.0637073
120.2	0.0635494
120.3	0.0633948
120.4	0.0632396
120.5	0.0630811
120.6	0.0629242
120.7	0.0627696
120.8	0.0626199
120.9	0.0624731
121	0.062327
121.1	0.0621811
121.2	0.0620385
121.3	0.0618965
121.4	0.0617524
121.5	0.0616108
121.6	0.0614722
121.7	0.0613317
121.8	0.0611876
121.9	0.0610417
122	0.0608945
122.1	0.0607472
122.2	0.0605977
122.3	0.060446
122.4	0.0602942
122.5	0.0601359
122.6	0.059974
122.7	0.0598115
122.8	0.0596513
122.9	0.0594898
123	0.0593292
123.1	0.0591678
123.2	0.0590122
123.3	0.0588625
123.4	0.0587156
123.5	0.0585695
123.6	0.0584207
123.7	0.0582747
123.8	0.0581249
123.9	0.0579709
124	0.0578188
124.1	0.0576699
124.2	0.0575281
124.3	0.0573898
124.4	0.0572514
124.5	0.0571125
124.6	0.0569756
124.7	0.0568412
124.8	0.0567068
124.9	0.056574
125	0.0564394
125.1	0.0562979
125.2	0.0561515
125.3	0.0560073
125.4	0.0558694
125.5	0.0557359
125.6	0.0556001
125.7	0.0554597
125.8	0.0553194
125.9	0.0551808
126	0.055047
126.1	0.0549135
126.2	0.0547812
126.3	0.0546449
126.4	0.0545019
126.5	0.0543587
126.6	0.054219
126.7	0.0540877
126.8	0.05396
126.9	0.0538325
127	0.0537071
127.1	0.053586
127.2	0.0534636
127.3	0.0533408
127.4	0.0532191
127.5	0.053097
127.6	0.0529727
127.7	0.0528462
127.8	0.0527235
127.9	0.0526051
128	0.0524935
128.1	0.052386
128.2	0.052282
128.3	0.0521815
128.4	0.0520811
128.5	0.0519789
128.6	0.0518756
128.7	0.0517687
128.8	0.0516645
128.9	0.0515633
129	0.051464
129.1	0.0513638
129.2	0.0512619
129.3	0.0511585
129.4	0.0510562
129.5	0.0509542
129.6	0.0508534
129.7	0.0507544
129.8	0.0506542
129.9	0.0505504
130	0.0504491
130.1	0.0503541
130.2	0.0502577
130.3	0.0501585
130.4	0.0500576
130.5	0.0499555
130.6	0.0498519
130.7	0.0497473
130.8	0.0496462
130.9	0.0495472
131	0.0494489
131.1	0.0493532
131.2	0.0492628
131.3	0.0491766
131.4	0.0490915
131.5	0.0490076
131.6	0.0489235
131.7	0.0488395
131.8	0.0487547
131.9	0.0486703
132	0.0485853
132.1	0.0484931
132.2	0.0483969
132.3	0.0482979
132.4	0.0482044
132.5	0.048115
132.6	0.0480296
132.7	0.0479488
132.8	0.0478684
132.9	0.0477873
133	0.047702
133.1	0.0476119
133.2	0.0475279
133.3	0.0474492
133.4	0.0473761
133.5	0.0473038
133.6	0.047232
133.7	0.0471625
133.8	0.0470897
133.9	0.0470187
134	0.0469434
134.1	0.0468691
134.2	0.0467936
134.3	0.0467202
134.4	0.046645
134.5	0.0465695
134.6	0.0464961
134.7	0.0464279
134.8	0.0463641
134.9	0.0463024
135	0.0462453
135.1	0.0461929
135.2	0.0461371
135.3	0.0460882
135.4	0.0460469
135.5	0.0460093
135.6	0.0459742
135.7	0.0459429
135.8	0.0459102
135.9	0.0458731
136	0.0458335
136.1	0.0457917
136.2	0.0457467
136.3	0.0457065
136.4	0.0456675
136.5	0.0456298
136.6	0.045595
136.7	0.0455578
136.8	0.0455217
136.9	0.045483
137	0.0454427
137.1	0.045399
137.2	0.0453549
137.3	0.0453094
137.4	0.0452608
137.5	0.0452091
137.6	0.0451569
137.7	0.045107
137.8	0.0450588
137.9	0.0450096
138	0.0449581
138.1	0.0449067
138.2	0.0448536
138.3	0.0447986
138.4	0.0447438
138.5	0.0446873
138.6	0.0446313
138.7	0.0445726
138.8	0.0445135
138.9	0.0444562
139	0.0443975
139.1	0.0443372
139.2	0.0442768
139.3	0.0442144
139.4	0.0441497
139.5	0.0440844
139.6	0.0440187
139.7	0.0439521
139.8	0.0438833
139.9	0.0438134
140	0.0437461
140.1	0.0436829
140.2	0.0436186
140.3	0.0435491
140.4	0.0434792
140.5	0.0434105
140.6	0.0433415
140.7	0.0432718
140.8	0.0432027
140.9	0.0431318
141	0.0430637
141.1	0.0429961
141.2	0.0429293
141.3	0.0428623
141.4	0.042797
141.5	0.0427336
