LagTime	Correlation

0	3.03599
0.1	3.03098
0.2	3.02348
0.3	3.01539
0.4	3.00719
0.5	2.99901
0.6	2.99088
0.7	2.9828
0.8	2.97477
0.9	2.9668
1	2.95888
1.1	2.95101
1.2	2.9432
1.3	2.93543
1.4	2.92771
1.5	2.92004
1.6	2.91242
1.7	2.90485
1.8	2.89734
1.9	2.88986
2	2.88244
2.1	2.87505
2.2	2.86772
2.3	2.86043
2.4	2.85318
2.5	2.84598
2.6	2.83883
2.7	2.83172
2.8	2.82466
2.9	2.81764
3	2.81066
3.1	2.80373
3.2	2.79683
3.3	2.78997
3.4	2.78316
3.5	2.77638
3.6	2.76965
3.7	2.76296
3.8	2.7563
3.9	2.74969
4	2.7431
4.1	2.73656
4.2	2.73006
4.3	2.72359
4.4	2.71715
4.5	2.71074
4.6	2.70437
4.7	2.69803
4.8	2.69172
4.9	2.68545
5	2.67921
5.1	2.673
5.2	2.66681
5.3	2.66067
5.4	2.65455
5.5	2.64846
5.6	2.64239
5.7	2.63636
5.8	2.63036
5.9	2.62438
6	2.61844
6.1	2.61254
6.2	2.60666
6.3	2.6008
6.4	2.59497
6.5	2.58916
6.6	2.58337
6.7	2.57761
6.8	2.57186
6.9	2.56615
7	2.56045
7.1	2.55478
7.2	2.54914
7.3	2.54354
7.4	2.53796
7.5	2.5324
7.6	2.52688
7.7	2.52138
7.8	2.5159
7.9	2.51046
8	2.50505
8.1	2.49966
8.2	2.49431
8.3	2.48897
8.4	2.48366
8.5	2.47836
8.6	2.47309
8.7	2.46784
8.8	2.46262
8.9	2.45742
9	2.45224
9.1	2.44709
9.2	2.44196
9.3	2.43686
9.4	2.43177
9.5	2.42671
9.6	2.42166
9.7	2.41663
9.8	2.41162
9.9	2.40663
10	2.40166
10.1	2.39671
10.2	2.39178
10.3	2.38687
10.4	2.38198
10.5	2.37711
10.6	2.37225
10.7	2.3674
10.8	2.36258
10.9	2.35777
11	2.35299
11.1	2.34822
11.2	2.34347
11.3	2.33874
11.4	2.33403
11.5	2.32933
11.6	2.32465
11.7	2.31999
11.8	2.31534
11.9	2.31071
12	2.30608
12.1	2.30148
12.2	2.2969
12.3	2.29233
12.4	2.28778
12.5	2.28325
12.6	2.27873
12.7	2.27422
12.8	2.26973
12.9	2.26524
13	2.26078
13.1	2.25633
13.2	2.2519
13.3	2.24747
13.4	2.24306
13.5	2.23867
13.6	2.23429
13.7	2.22992
13.8	2.22556
13.9	2.22122
14	2.21689
14.1	2.21258
14.2	2.20829
14.3	2.20402
14.4	2.19976
14.5	2.19551
14.6	2.19127
14.7	2.18705
14.8	2.18283
14.9	2.17862
15	2.17442
15.1	2.17024
15.2	2.16607
15.3	2.16191
15.4	2.15776
15.5	2.15364
15.6	2.14953
15.7	2.14543
15.8	2.14135
15.9	2.13728
16	2.13323
16.1	2.12919
16.2	2.12515
16.3	2.12112
16.4	2.1171
16.5	2.11309
16.6	2.1091
16.7	2.10511
16.8	2.10113
16.9	2.09715
17	2.09318
17.1	2.08923
17.2	2.08528
17.3	2.08134
17.4	2.07742
17.5	2.0735
17.6	2.06959
17.7	2.0657
17.8	2.06182
17.9	2.05795
18	2.05409
18.1	2.05024
18.2	2.04641
18.3	2.04259
18.4	2.03878
18.5	2.03499
18.6	2.0312
18.7	2.02742
18.8	2.02365
18.9	2.01989
19	2.01614
19.1	2.0124
19.2	2.00868
19.3	2.00498
19.4	2.00128
19.5	1.99758
19.6	1.99389
19.7	1.99021
19.8	1.98654
19.9	1.98287
20	1.97921
20.1	1.97556
20.2	1.97192
20.3	1.96828
20.4	1.96465
20.5	1.96104
20.6	1.95743
20.7	1.95383
20.8	1.95023
20.9	1.94664
21	1.94306
21.1	1.93948
21.2	1.93591
21.3	1.93235
21.4	1.92879
21.5	1.92524
21.6	1.92171
21.7	1.91819
21.8	1.91467
21.9	1.91117
22	1.90767
22.1	1.90418
22.2	1.9007
22.3	1.89723
22.4	1.89376
22.5	1.8903
22.6	1.88686
22.7	1.88342
22.8	1.87999
22.9	1.87657
23	1.87315
23.1	1.86975
23.2	1.86635
23.3	1.86297
23.4	1.85959
23.5	1.85621
23.6	1.85283
23.7	1.84945
23.8	1.84609
23.9	1.84273
24	1.83937
24.1	1.83602
24.2	1.83268
24.3	1.82934
24.4	1.82601
24.5	1.82268
24.6	1.81936
24.7	1.81604
24.8	1.81273
24.9	1.80943
25	1.80613
25.1	1.80284
25.2	1.79956
25.3	1.79629
25.4	1.79302
25.5	1.78976
25.6	1.7865
25.7	1.78324
25.8	1.77999
25.9	1.77674
26	1.77351
26.1	1.77028
26.2	1.76706
26.3	1.76385
26.4	1.76064
26.5	1.75743
26.6	1.75424
26.7	1.75105
26.8	1.74788
26.9	1.7447
27	1.74154
27.1	1.7384
27.2	1.73525
27.3	1.73211
27.4	1.72897
27.5	1.72583
27.6	1.7227
27.7	1.71957
27.8	1.71645
27.9	1.71334
28	1.71024
28.1	1.70715
28.2	1.70406
28.3	1.70098
28.4	1.69791
28.5	1.69484
28.6	1.69178
28.7	1.68873
28.8	1.68569
28.9	1.68265
29	1.67961
29.1	1.67658
29.2	1.67356
29.3	1.67054
29.4	1.66753
29.5	1.66452
29.6	1.66152
29.7	1.65851
29.8	1.65551
29.9	1.65252
30	1.64954
30.1	1.64655
30.2	1.64357
30.3	1.64061
30.4	1.63765
30.5	1.6347
30.6	1.63175
30.7	1.62881
30.8	1.62588
30.9	1.62296
31	1.62004
31.1	1.61713
31.2	1.61422
31.3	1.61132
31.4	1.60843
31.5	1.60554
31.6	1.60266
31.7	1.5998
31.8	1.59694
31.9	1.59408
32	1.59122
32.1	1.58837
32.2	1.58553
32.3	1.5827
32.4	1.57988
32.5	1.57707
32.6	1.57426
32.7	1.57146
32.8	1.56866
32.9	1.56586
33	1.56308
33.1	1.5603
33.2	1.55752
33.3	1.55475
33.4	1.55198
33.5	1.54922
33.6	1.54647
33.7	1.54372
33.8	1.54097
33.9	1.53822
34	1.53548
34.1	1.53274
34.2	1.53001
34.3	1.52728
34.4	1.52456
34.5	1.52184
34.6	1.51912
34.7	1.5164
34.8	1.5137
34.9	1.511
35	1.5083
35.1	1.5056
35.2	1.50291
35.3	1.50023
35.4	1.49755
35.5	1.49487
35.6	1.4922
35.7	1.48954
35.8	1.48688
35.9	1.48423
36	1.48159
36.1	1.47896
36.2	1.47633
36.3	1.47372
36.4	1.47111
36.5	1.4685
36.6	1.46589
36.7	1.46329
36.8	1.46069
36.9	1.4581
37	1.45552
37.1	1.45294
37.2	1.45037
37.3	1.4478
37.4	1.44523
37.5	1.44268
37.6	1.44012
37.7	1.43758
37.8	1.43504
37.9	1.4325
38	1.42997
38.1	1.42745
38.2	1.42493
38.3	1.4224
38.4	1.41988
38.5	1.41736
38.6	1.41485
38.7	1.41234
38.8	1.40984
38.9	1.40734
39	1.40485
39.1	1.40236
39.2	1.39987
39.3	1.3974
39.4	1.39493
39.5	1.39247
39.6	1.39002
39.7	1.38758
39.8	1.38514
39.9	1.3827
40	1.38026
40.1	1.37782
40.2	1.37538
40.3	1.37295
40.4	1.37051
40.5	1.36809
40.6	1.36567
40.7	1.36325
40.8	1.36084
40.9	1.35843
41	1.35603
41.1	1.35362
41.2	1.35122
41.3	1.34882
41.4	1.34643
41.5	1.34404
41.6	1.34166
41.7	1.33927
41.8	1.33689
41.9	1.33452
42	1.33215
42.1	1.32978
42.2	1.32743
42.3	1.32508
42.4	1.32274
42.5	1.32041
42.6	1.31809
42.7	1.31576
42.8	1.31345
42.9	1.31114
43	1.30884
43.1	1.30653
43.2	1.30423
43.3	1.30192
43.4	1.29961
43.5	1.29731
43.6	1.295
43.7	1.2927
43.8	1.2904
43.9	1.28811
44	1.28582
44.1	1.28354
44.2	1.28126
44.3	1.27897
44.4	1.2767
44.5	1.27443
44.6	1.27217
44.7	1.26992
44.8	1.26766
44.9	1.26541
45	1.26317
45.1	1.26093
45.2	1.25869
45.3	1.25646
45.4	1.25423
45.5	1.252
45.6	1.24978
45.7	1.24756
45.8	1.24534
45.9	1.24313
46	1.24093
46.1	1.23873
46.2	1.23654
46.3	1.23436
46.4	1.23218
46.5	1.23001
46.6	1.22784
46.7	1.22567
46.8	1.22351
46.9	1.22134
47	1.21918
47.1	1.21701
47.2	1.21485
47.3	1.21268
47.4	1.21052
47.5	1.20836
47.6	1.20621
47.7	1.20407
47.8	1.20194
47.9	1.19981
48	1.19768
48.1	1.19556
48.2	1.19343
48.3	1.1913
48.4	1.18916
48.5	1.18703
48.6	1.1849
48.7	1.18277
48.8	1.18063
48.9	1.1785
49	1.17638
49.1	1.17426
49.2	1.17214
49.3	1.17003
49.4	1.16791
49.5	1.1658
49.6	1.16369
49.7	1.16159
49.8	1.15948
49.9	1.15738
50	1.15528
50.1	1.15319
50.2	1.15111
50.3	1.14902
50.4	1.14695
50.5	1.14487
50.6	1.14279
50.7	1.14071
50.8	1.13864
50.9	1.13657
51	1.13451
51.1	1.13244
51.2	1.13039
51.3	1.12833
51.4	1.12628
51.5	1.12422
51.6	1.12218
51.7	1.12013
51.8	1.11809
51.9	1.11604
52	1.114
52.1	1.11197
52.2	1.10994
52.3	1.10792
52.4	1.1059
52.5	1.10389
52.6	1.10189
52.7	1.09989
52.8	1.0979
52.9	1.09591
53	1.09392
53.1	1.09194
53.2	1.08997
53.3	1.08801
53.4	1.08605
53.5	1.08409
53.6	1.08213
53.7	1.08017
53.8	1.07822
53.9	1.07627
54	1.07433
54.1	1.07238
54.2	1.07044
54.3	1.0685
54.4	1.06657
54.5	1.06464
54.6	1.06271
54.7	1.06079
54.8	1.05887
54.9	1.05695
55	1.05504
55.1	1.05313
55.2	1.05122
55.3	1.04933
55.4	1.04743
55.5	1.04552
55.6	1.04362
55.7	1.04172
55.8	1.03983
55.9	1.03793
56	1.03605
56.1	1.03417
56.2	1.03229
56.3	1.03042
56.4	1.02855
56.5	1.02669
56.6	1.02484
56.7	1.02298
56.8	1.02113
56.9	1.01928
57	1.01744
57.1	1.01561
57.2	1.01379
57.3	1.01198
57.4	1.01018
57.5	1.00838
57.6	1.00658
57.7	1.00479
57.8	1.00301
57.9	1.00123
58	0.999447
58.1	0.997666
58.2	0.995891
58.3	0.994121
58.4	0.992353
58.5	0.990583
58.6	0.988819
58.7	0.987057
58.8	0.985298
58.9	0.983542
59	0.981788
59.1	0.980034
59.2	0.978285
59.3	0.976533
59.4	0.974782
59.5	0.973032
59.6	0.971287
59.7	0.969546
59.8	0.967819
59.9	0.966102
60	0.964392
60.1	0.962687
60.2	0.960988
60.3	0.959291
60.4	0.957594
60.5	0.955898
60.6	0.954204
60.7	0.952512
60.8	0.950825
60.9	0.949142
61	0.947458
61.1	0.945776
61.2	0.944095
61.3	0.942414
61.4	0.940735
61.5	0.939057
61.6	0.937379
61.7	0.9357
61.8	0.934016
61.9	0.93233
62	0.930645
62.1	0.92896
62.2	0.927277
62.3	0.925602
62.4	0.92393
62.5	0.922261
62.6	0.920597
62.7	0.918935
62.8	0.917274
62.9	0.91561
63	0.913946
63.1	0.912287
63.2	0.910628
63.3	0.908969
63.4	0.907315
63.5	0.905664
63.6	0.904019
63.7	0.902374
63.8	0.90073
63.9	0.899089
64	0.897456
64.1	0.895829
64.2	0.894204
64.3	0.892584
64.4	0.890971
64.5	0.889365
64.6	0.887765
64.7	0.886166
64.8	0.884565
64.9	0.882968
65	0.881375
65.1	0.879788
65.2	0.8782
65.3	0.876611
65.4	0.875022
65.5	0.873432
65.6	0.871841
65.7	0.870254
65.8	0.868671
65.9	0.86709
66	0.865518
66.1	0.863947
66.2	0.862377
66.3	0.860812
66.4	0.859251
66.5	0.85769
66.6	0.856128
66.7	0.854567
66.8	0.853007
66.9	0.85145
67	0.849894
67.1	0.848343
67.2	0.846796
67.3	0.845251
67.4	0.843703
67.5	0.842159
67.6	0.840618
67.7	0.839083
67.8	0.837551
67.9	0.836024
68	0.834498
68.1	0.832974
68.2	0.831457
68.3	0.829945
68.4	0.828438
68.5	0.82693
68.6	0.825421
68.7	0.823913
68.8	0.822409
68.9	0.820909
69	0.819415
69.1	0.817931
69.2	0.816453
69.3	0.814983
69.4	0.813518
69.5	0.812052
69.6	0.81059
69.7	0.809128
69.8	0.807665
69.9	0.806196
70	0.804726
70.1	0.803261
70.2	0.801804
70.3	0.800357
70.4	0.798919
70.5	0.797491
70.6	0.796068
70.7	0.794647
70.8	0.793233
70.9	0.791823
71	0.790416
71.1	0.789015
71.2	0.787618
71.3	0.786226
71.4	0.784838
71.5	0.783455
71.6	0.782073
71.7	0.780694
71.8	0.779322
71.9	0.777955
72	0.776599
72.1	0.775249
72.2	0.773899
72.3	0.772555
72.4	0.771215
72.5	0.769869
72.6	0.768512
72.7	0.767155
72.8	0.765797
72.9	0.764444
73	0.763093
73.1	0.761747
73.2	0.760403
73.3	0.759059
73.4	0.757712
73.5	0.756365
73.6	0.755023
73.7	0.753693
73.8	0.75237
73.9	0.751054
74	0.749742
74.1	0.748431
74.2	0.747121
74.3	0.745816
74.4	0.744518
74.5	0.743226
74.6	0.741936
74.7	0.740645
74.8	0.739355
74.9	0.738068
75	0.736783
75.1	0.735494
75.2	0.734201
75.3	0.732915
75.4	0.731631
75.5	0.73035
75.6	0.729071
75.7	0.727793
75.8	0.726521
75.9	0.725249
76	0.723977
76.1	0.722702
76.2	0.721426
76.3	0.72015
76.4	0.718872
76.5	0.717596
76.6	0.71632
76.7	0.71505
76.8	0.713789
76.9	0.712534
77	0.711288
77.1	0.710047
77.2	0.708806
77.3	0.707566
77.4	0.706326
77.5	0.70509
77.6	0.703853
77.7	0.702616
77.8	0.70138
77.9	0.700146
78	0.698913
78.1	0.69768
78.2	0.696449
78.3	0.695221
78.4	0.694
78.5	0.692782
78.6	0.691563
78.7	0.690337
78.8	0.689116
78.9	0.687899
79	0.68668
79.1	0.68546
79.2	0.684239
79.3	0.683017
79.4	0.681801
79.5	0.680586
79.6	0.679378
79.7	0.678171
79.8	0.676969
79.9	0.675765
80	0.674561
80.1	0.673361
80.2	0.672169
80.3	0.67098
80.4	0.669798
80.5	0.668622
80.6	0.667452
80.7	0.666285
80.8	0.665122
80.9	0.663965
81	0.662814
81.1	0.661665
81.2	0.660518
81.3	0.659375
81.4	0.65823
81.5	0.65709
81.6	0.655948
81.7	0.654808
81.8	0.653674
81.9	0.652545
82	0.651411
82.1	0.650273
82.2	0.649136
82.3	0.648001
82.4	0.646869
82.5	0.64574
82.6	0.64461
82.7	0.643481
82.8	0.642352
82.9	0.641217
83	0.640082
83.1	0.638953
83.2	0.637828
83.3	0.636707
83.4	0.635592
83.5	0.634479
83.6	0.633374
83.7	0.632271
83.8	0.631171
83.9	0.630075
84	0.628983
84.1	0.627893
84.2	0.626811
84.3	0.625734
84.4	0.624657
84.5	0.623581
84.6	0.622509
84.7	0.621438
84.8	0.620366
84.9	0.6193
85	0.618238
85.1	0.617178
85.2	0.616118
85.3	0.615059
85.4	0.614
85.5	0.612941
85.6	0.611882
85.7	0.610818
85.8	0.609759
85.9	0.608697
86	0.607632
86.1	0.606568
86.2	0.605505
86.3	0.604446
86.4	0.603393
86.5	0.602346
86.6	0.601303
86.7	0.600264
86.8	0.599228
86.9	0.598199
87	0.597182
87.1	0.596176
87.2	0.595173
87.3	0.594172
87.4	0.593167
87.5	0.592164
87.6	0.59116
87.7	0.590156
87.8	0.589151
87.9	0.588145
88	0.587139
88.1	0.586135
88.2	0.585128
88.3	0.584122
88.4	0.583119
88.5	0.58212
88.6	0.581119
88.7	0.580127
88.8	0.579138
88.9	0.57815
89	0.577165
89.1	0.576184
89.2	0.5752
89.3	0.57422
89.4	0.573241
89.5	0.572261
89.6	0.57128
89.7	0.570298
89.8	0.569318
89.9	0.56834
90	0.567363
90.1	0.566385
90.2	0.56541
90.3	0.56444
90.4	0.563473
90.5	0.562505
90.6	0.561536
90.7	0.56057
90.8	0.559605
90.9	0.55864
91	0.55767
91.1	0.556699
91.2	0.555725
91.3	0.554751
91.4	0.553774
91.5	0.552794
91.6	0.551812
91.7	0.550839
91.8	0.549876
91.9	0.548918
92	0.54796
92.1	0.547001
92.2	0.546042
92.3	0.54508
92.4	0.544112
92.5	0.543138
92.6	0.542166
92.7	0.541197
92.8	0.540226
92.9	0.539258
93	0.538292
93.1	0.53733
93.2	0.536369
93.3	0.53541
93.4	0.534453
93.5	0.533499
93.6	0.532546
93.7	0.531596
93.8	0.530646
93.9	0.529702
94	0.528766
94.1	0.527829
94.2	0.526893
94.3	0.525959
94.4	0.525028
94.5	0.524102
94.6	0.523177
94.7	0.522252
94.8	0.521331
94.9	0.520411
95	0.519494
95.1	0.518579
95.2	0.517667
95.3	0.516761
95.4	0.51586
95.5	0.514963
95.6	0.514071
95.7	0.513184
95.8	0.512301
95.9	0.511419
96	0.510537
96.1	0.509658
96.2	0.508779
96.3	0.507904
96.4	0.507025
96.5	0.506146
96.6	0.505269
96.7	0.504393
96.8	0.503519
96.9	0.502643
97	0.501764
97.1	0.500884
97.2	0.500003
97.3	0.499118
97.4	0.498233
97.5	0.497349
97.6	0.496465
97.7	0.495583
97.8	0.494704
97.9	0.493829
98	0.492955
98.1	0.492078
98.2	0.491193
98.3	0.490305
98.4	0.48942
98.5	0.488528
98.6	0.487632
98.7	0.486739
98.8	0.485847
98.9	0.484957
99	0.484074
99.1	0.48319
99.2	0.48231
99.3	0.481432
99.4	0.480555
99.5	0.479678
99.6	0.478802
99.7	0.477931
99.8	0.477062
99.9	0.4762
100	0.47534
100.1	0.47448
100.2	0.473618
100.3	0.472751
100.4	0.471882
100.5	0.471012
100.6	0.470149
100.7	0.469294
100.8	0.468445
100.9	0.4676
101	0.466757
101.1	0.465916
101.2	0.465079
101.3	0.464242
101.4	0.463409
101.5	0.462584
101.6	0.461768
101.7	0.460955
101.8	0.460145
101.9	0.459335
102	0.458522
102.1	0.457707
102.2	0.456889
102.3	0.456072
102.4	0.455258
102.5	0.454447
102.6	0.453634
102.7	0.452823
102.8	0.452012
102.9	0.451203
103	0.450396
103.1	0.449594
103.2	0.448795
103.3	0.447999
103.4	0.447208
103.5	0.446411
103.6	0.445611
103.7	0.444813
103.8	0.444016
103.9	0.443223
104	0.442434
104.1	0.441647
104.2	0.440867
104.3	0.440084
104.4	0.439299
104.5	0.438506
104.6	0.43771
104.7	0.436911
104.8	0.436113
104.9	0.435316
105	0.43452
105.1	0.433723
105.2	0.432926
105.3	0.432129
105.4	0.43133
105.5	0.430533
105.6	0.429738
105.7	0.428943
105.8	0.428147
105.9	0.427348
106	0.426543
106.1	0.42574
106.2	0.424933
106.3	0.424131
106.4	0.423328
106.5	0.422529
106.6	0.421732
106.7	0.420943
106.8	0.42016
106.9	0.419379
107	0.418603
107.1	0.417831
107.2	0.417062
107.3	0.416297
107.4	0.415531
107.5	0.414765
107.6	0.413997
107.7	0.413231
107.8	0.412468
107.9	0.411709
108	0.410955
108.1	0.410204
108.2	0.409456
108.3	0.40871
108.4	0.407962
108.5	0.407214
108.6	0.406463
108.7	0.405712
108.8	0.404961
108.9	0.404214
109	0.403471
109.1	0.402737
109.2	0.402005
109.3	0.401271
109.4	0.400539
109.5	0.399807
109.6	0.399077
109.7	0.398348
109.8	0.397621
109.9	0.396894
110	0.396168
110.1	0.395449
110.2	0.394732
110.3	0.394016
110.4	0.393299
110.5	0.392581
110.6	0.391861
110.7	0.39114
110.8	0.390417
110.9	0.389701
111	0.388992
111.1	0.388286
111.2	0.387579
111.3	0.386869
111.4	0.386161
111.5	0.385452
111.6	0.38474
111.7	0.384025
111.8	0.383309
111.9	0.382593
112	0.381881
112.1	0.38117
112.2	0.380461
112.3	0.379757
112.4	0.37906
112.5	0.37837
112.6	0.377682
112.7	0.376993
112.8	0.376303
112.9	0.375614
113	0.374923
113.1	0.374236
113.2	0.373553
113.3	0.372873
113.4	0.372193
113.5	0.37151
113.6	0.370827
113.7	0.370143
113.8	0.36946
113.9	0.368774
114	0.368091
114.1	0.367409
114.2	0.366726
114.3	0.366042
114.4	0.365354
114.5	0.364666
114.6	0.363973
114.7	0.363282
114.8	0.362592
114.9	0.361904
115	0.361214
115.1	0.360521
115.2	0.359831
115.3	0.359141
115.4	0.358456
115.5	0.357773
115.6	0.357089
115.7	0.356396
115.8	0.355704
115.9	0.355014
116	0.35433
116.1	0.353649
116.2	0.352976
116.3	0.352305
116.4	0.351639
116.5	0.35098
116.6	0.350325
116.7	0.349677
116.8	0.349034
116.9	0.348391
117	0.347747
117.1	0.347102
117.2	0.346453
117.3	0.345809
117.4	0.345169
117.5	0.344534
117.6	0.343909
117.7	0.343292
117.8	0.342679
117.9	0.342068
118	0.341458
118.1	0.340846
118.2	0.34023
118.3	0.339614
118.4	0.338997
118.5	0.33838
118.6	0.337761
118.7	0.337142
118.8	0.336525
118.9	0.335908
119	0.335294
119.1	0.334678
119.2	0.334064
119.3	0.33345
119.4	0.332836
119.5	0.332221
119.6	0.331607
119.7	0.330996
119.8	0.330393
119.9	0.329789
120	0.329183
120.1	0.328574
120.2	0.327964
120.3	0.327354
120.4	0.326742
120.5	0.326136
120.6	0.32553
120.7	0.324925
120.8	0.324324
120.9	0.32372
121	0.323117
121.1	0.32252
121.2	0.32193
121.3	0.321342
121.4	0.320755
121.5	0.320169
121.6	0.319579
121.7	0.318988
121.8	0.318403
121.9	0.317818
122	0.317236
122.1	0.316656
122.2	0.316075
122.3	0.315498
122.4	0.314923
122.5	0.314347
122.6	0.313772
122.7	0.313195
122.8	0.312615
122.9	0.312034
123	0.311451
123.1	0.31087
123.2	0.310291
123.3	0.309712
123.4	0.309133
123.5	0.308554
123.6	0.307977
123.7	0.307399
123.8	0.306824
123.9	0.306248
124	0.305672
124.1	0.305096
124.2	0.304521
124.3	0.303955
124.4	0.303396
124.5	0.302844
124.6	0.302292
124.7	0.301736
124.8	0.301179
124.9	0.300624
125	0.300075
125.1	0.29953
125.2	0.298988
125.3	0.298446
125.4	0.297904
125.5	0.297361
125.6	0.296826
125.7	0.296294
125.8	0.295762
125.9	0.29523
126	0.2947
126.1	0.294171
126.2	0.293638
126.3	0.293107
126.4	0.292576
126.5	0.292045
126.6	0.291511
126.7	0.290976
126.8	0.290444
126.9	0.289915
127	0.289388
127.1	0.288866
127.2	0.288349
127.3	0.287833
127.4	0.287314
127.5	0.286794
127.6	0.286271
127.7	0.285746
127.8	0.285216
127.9	0.284681
128	0.284145
128.1	0.283613
128.2	0.283085
128.3	0.282561
128.4	0.282045
128.5	0.281534
128.6	0.281019
128.7	0.2805
128.8	0.27998
128.9	0.279461
129	0.278943
129.1	0.278431
129.2	0.277926
129.3	0.277424
129.4	0.27692
129.5	0.276414
129.6	0.275908
129.7	0.275404
129.8	0.2749
129.9	0.274394
130	0.273885
130.1	0.273373
130.2	0.272859
130.3	0.272344
130.4	0.271829
130.5	0.27131
130.6	0.270789
130.7	0.270264
130.8	0.269738
130.9	0.269211
131	0.268684
131.1	0.268157
131.2	0.267629
131.3	0.267107
131.4	0.266587
131.5	0.266064
131.6	0.265543
131.7	0.26502
131.8	0.264497
131.9	0.263977
132	0.263458
132.1	0.262941
132.2	0.262427
132.3	0.261917
132.4	0.261404
132.5	0.26089
132.6	0.260379
132.7	0.259868
132.8	0.259357
132.9	0.258844
133	0.258328
133.1	0.257816
133.2	0.257302
133.3	0.256785
133.4	0.256269
133.5	0.255754
133.6	0.255242
133.7	0.254734
133.8	0.254225
133.9	0.253715
134	0.253208
134.1	0.252704
134.2	0.252201
134.3	0.251701
134.4	0.251208
134.5	0.250715
134.6	0.250227
134.7	0.249737
134.8	0.249245
134.9	0.248757
135	0.24827
135.1	0.247781
135.2	0.247294
135.3	0.246807
135.4	0.246323
135.5	0.24584
135.6	0.245358
135.7	0.244876
135.8	0.244395
135.9	0.243908
136	0.243415
136.1	0.242918
136.2	0.242416
136.3	0.241911
136.4	0.241404
136.5	0.240897
136.6	0.240391
136.7	0.239879
136.8	0.239361
136.9	0.238841
137	0.23832
137.1	0.237803
137.2	0.237294
137.3	0.236792
137.4	0.236298
137.5	0.235806
137.6	0.235313
137.7	0.23482
137.8	0.234327
137.9	0.233838
138	0.233349
138.1	0.232862
138.2	0.232371
138.3	0.231887
138.4	0.231407
138.5	0.230922
138.6	0.230432
138.7	0.229939
138.8	0.229449
138.9	0.228957
139	0.228461
139.1	0.227966
139.2	0.227473
139.3	0.226978
139.4	0.226481
139.5	0.225979
139.6	0.225472
139.7	0.224967
139.8	0.224464
139.9	0.223964
140	0.223463
140.1	0.222958
140.2	0.222446
140.3	0.221933
140.4	0.221419
140.5	0.220907
140.6	0.220397
140.7	0.219886
140.8	0.219377
140.9	0.218872
141	0.218366
141.1	0.217862
141.2	0.217362
141.3	0.216861
141.4	0.216355
141.5	0.215851
141.6	0.215353
141.7	0.214864
141.8	0.214383
141.9	0.213909
142	0.213437
142.1	0.21297
142.2	0.212506
142.3	0.212045
142.4	0.211583
142.5	0.211117
142.6	0.210655
142.7	0.210195
142.8	0.209737
142.9	0.209284
143	0.208832
143.1	0.208383
143.2	0.207937
143.3	0.207494
143.4	0.207053
143.5	0.206618
143.6	0.206181
143.7	0.205747
143.8	0.205319
143.9	0.204896
144	0.20447
144.1	0.204045
144.2	0.203624
144.3	0.203205
144.4	0.20279
144.5	0.202378
144.6	0.201967
144.7	0.201556
144.8	0.201146
144.9	0.200728
145	0.200306
145.1	0.199878
145.2	0.199448
145.3	0.199015
145.4	0.198579
145.5	0.198147
145.6	0.197716
145.7	0.197285
145.8	0.196853
145.9	0.196418
146	0.195984
146.1	0.195556
146.2	0.195131
146.3	0.194707
146.4	0.194287
146.5	0.193866
146.6	0.193447
146.7	0.193032
146.8	0.192619
146.9	0.192209
147	0.191796
147.1	0.19138
147.2	0.190962
147.3	0.190546
