LagTime	Correlation

0	0.665141
0.1	0.660123
0.2	0.652647
0.3	0.64463
0.4	0.636555
0.5	0.628538
0.6	0.62061
0.7	0.612781
0.8	0.605053
0.9	0.597428
1	0.589901
1.1	0.582471
1.2	0.575131
1.3	0.567878
1.4	0.560712
1.5	0.553637
1.6	0.54665
1.7	0.539749
1.8	0.532928
1.9	0.526185
2	0.519523
2.1	0.512944
2.2	0.506448
2.3	0.500029
2.4	0.49369
2.5	0.487432
2.6	0.481259
2.7	0.475168
2.8	0.469162
2.9	0.463235
3	0.45738
3.1	0.451599
3.2	0.445893
3.3	0.440256
3.4	0.434683
3.5	0.429172
3.6	0.423726
3.7	0.418347
3.8	0.413034
3.9	0.407786
4	0.402604
4.1	0.397487
4.2	0.392434
4.3	0.387447
4.4	0.382522
4.5	0.377656
4.6	0.372848
4.7	0.368097
4.8	0.363408
4.9	0.358776
5	0.354204
5.1	0.349696
5.2	0.345248
5.3	0.340863
5.4	0.336534
5.5	0.332265
5.6	0.328046
5.7	0.323883
5.8	0.319771
5.9	0.31571
6	0.311701
6.1	0.307738
6.2	0.303823
6.3	0.299955
6.4	0.296137
6.5	0.292367
6.6	0.288643
6.7	0.28496
6.8	0.28132
6.9	0.27773
7	0.274186
7.1	0.270692
7.2	0.267244
7.3	0.263841
7.4	0.260478
7.5	0.257163
7.6	0.253887
7.7	0.250651
7.8	0.247457
7.9	0.244305
8	0.241197
8.1	0.238131
8.2	0.235103
8.3	0.232111
8.4	0.229153
8.5	0.226233
8.6	0.223351
8.7	0.220512
8.8	0.217715
8.9	0.214954
9	0.212227
9.1	0.209532
9.2	0.20687
9.3	0.204243
9.4	0.201648
9.5	0.199084
9.6	0.196552
9.7	0.194048
9.8	0.191575
9.9	0.189138
10	0.18674
10.1	0.184376
10.2	0.182043
10.3	0.179741
10.4	0.177476
10.5	0.175239
10.6	0.17303
10.7	0.170849
10.8	0.168691
10.9	0.166559
11	0.164451
11.1	0.162376
11.2	0.160331
11.3	0.158313
11.4	0.156324
11.5	0.154365
11.6	0.152431
11.7	0.150524
11.8	0.148642
11.9	0.146784
12	0.14495
12.1	0.14314
12.2	0.141356
12.3	0.139596
12.4	0.137859
12.5	0.13614
12.6	0.134442
12.7	0.13277
12.8	0.131124
12.9	0.129504
13	0.127907
13.1	0.126335
13.2	0.124781
13.3	0.12325
13.4	0.121737
13.5	0.120239
13.6	0.118756
13.7	0.117287
13.8	0.115834
13.9	0.114401
14	0.112988
14.1	0.111594
14.2	0.110218
14.3	0.108855
14.4	0.107507
14.5	0.10617
14.6	0.104847
14.7	0.103536
14.8	0.102239
14.9	0.100961
15	0.099698
15.1	0.0984492
15.2	0.097215
15.3	0.0959939
15.4	0.0947877
15.5	0.0935966
15.6	0.0924161
15.7	0.0912473
15.8	0.0900923
15.9	0.0889559
16	0.0878383
16.1	0.0867367
16.2	0.0856506
16.3	0.0845796
16.4	0.0835227
16.5	0.082479
16.6	0.0814496
16.7	0.0804333
16.8	0.0794264
16.9	0.0784287
17	0.0774449
17.1	0.0764746
17.2	0.0755128
17.3	0.074561
17.4	0.0736177
17.5	0.0726862
17.6	0.0717667
17.7	0.070859
17.8	0.0699603
17.9	0.0690678
18	0.0681837
18.1	0.0673092
18.2	0.0664464
18.3	0.0655932
18.4	0.0647482
18.5	0.063916
18.6	0.0630993
18.7	0.0622952
18.8	0.0615035
18.9	0.0607271
19	0.0599649
19.1	0.0592075
19.2	0.0584545
19.3	0.0577161
19.4	0.0569915
19.5	0.056281
19.6	0.0555776
19.7	0.0548817
19.8	0.0541893
19.9	0.0535018
20	0.0528204
20.1	0.0521448
20.2	0.0514804
20.3	0.0508279
20.4	0.0501826
20.5	0.0495488
20.6	0.0489217
20.7	0.0482976
20.8	0.0476867
20.9	0.0470863
21	0.046495
21.1	0.0459122
21.2	0.0453358
21.3	0.0447678
21.4	0.0442105
21.5	0.0436586
21.6	0.0431111
21.7	0.0425696
21.8	0.0420325
21.9	0.0414978
22	0.0409681
22.1	0.0404449
22.2	0.0399312
22.3	0.0394297
22.4	0.0389413
22.5	0.0384629
22.6	0.0379904
22.7	0.0375251
22.8	0.0370625
22.9	0.036601
23	0.0361451
23.1	0.0357011
23.2	0.0352641
23.3	0.0348347
23.4	0.0344115
23.5	0.0339919
23.6	0.0335786
23.7	0.0331748
23.8	0.0327744
23.9	0.0323763
24	0.0319782
24.1	0.0315818
24.2	0.0311913
24.3	0.0308049
24.4	0.0304251
24.5	0.0300512
24.6	0.0296839
24.7	0.0293271
24.8	0.0289801
24.9	0.0286354
25	0.0282922
25.1	0.0279566
25.2	0.0276316
25.3	0.0273144
25.4	0.0270036
25.5	0.0267014
25.6	0.0263985
25.7	0.0260937
25.8	0.0257964
25.9	0.0255036
26	0.0252146
26.1	0.0249324
26.2	0.024654
26.3	0.0243792
26.4	0.024111
26.5	0.0238494
26.6	0.0235901
26.7	0.0233332
26.8	0.0230832
26.9	0.0228412
27	0.0226035
27.1	0.0223722
27.2	0.0221471
27.3	0.0219328
27.4	0.0217231
27.5	0.0215178
27.6	0.0213131
27.7	0.0211091
27.8	0.020905
27.9	0.0206962
28	0.0204863
28.1	0.0202825
28.2	0.0200774
28.3	0.0198729
28.4	0.0196652
28.5	0.0194586
28.6	0.019251
28.7	0.019044
28.8	0.0188364
28.9	0.0186374
29	0.0184432
29.1	0.0182499
29.2	0.0180572
29.3	0.0178622
29.4	0.0176691
29.5	0.0174753
29.6	0.0172839
29.7	0.0170934
29.8	0.0169038
29.9	0.0167144
30	0.0165249
30.1	0.0163335
30.2	0.0161428
30.3	0.0159535
30.4	0.0157606
30.5	0.015563
30.6	0.0153658
30.7	0.0151749
30.8	0.0149973
30.9	0.0148293
31	0.0146638
31.1	0.0144981
31.2	0.0143344
31.3	0.0141734
31.4	0.0140134
31.5	0.0138499
31.6	0.0136877
31.7	0.0135191
31.8	0.0133469
31.9	0.0131706
32	0.0129918
32.1	0.0128096
32.2	0.012626
32.3	0.0124427
32.4	0.0122572
32.5	0.0120746
32.6	0.0118958
32.7	0.0117227
32.8	0.0115489
32.9	0.0113767
33	0.0112086
33.1	0.0110431
33.2	0.0108798
33.3	0.0107129
33.4	0.0105498
33.5	0.0103918
33.6	0.0102357
33.7	0.0100806
33.8	0.00992335
33.9	0.00977186
34	0.00962205
34.1	0.00947152
34.2	0.00932577
34.3	0.00918278
34.4	0.00904117
34.5	0.00889933
34.6	0.00875539
34.7	0.00861204
34.8	0.00847362
34.9	0.00834097
35	0.00821684
35.1	0.00809171
35.2	0.00796502
35.3	0.00784034
35.4	0.00772177
35.5	0.00760787
35.6	0.00749143
35.7	0.00737273
35.8	0.00725612
35.9	0.00714338
36	0.00703253
36.1	0.0069182
36.2	0.00680448
36.3	0.00669368
36.4	0.00658713
36.5	0.00648033
36.6	0.00637397
36.7	0.00626934
36.8	0.00616937
36.9	0.00607562
37	0.0059897
37.1	0.00590914
37.2	0.00582939
37.3	0.00575169
37.4	0.00567731
37.5	0.00560769
37.6	0.00553983
37.7	0.00547082
37.8	0.00540295
37.9	0.00533617
38	0.00526808
38.1	0.00519834
38.2	0.00512689
38.3	0.0050531
38.4	0.00498002
38.5	0.004908
38.6	0.00483374
38.7	0.00475989
38.8	0.00469122
38.9	0.00462123
39	0.004547
39.1	0.00447148
39.2	0.00439115
39.3	0.00431405
39.4	0.00423885
39.5	0.00416834
39.6	0.00409364
39.7	0.00401471
39.8	0.00392577
39.9	0.00383439
40	0.00374318
40.1	0.00365624
40.2	0.00357307
40.3	0.00349048
40.4	0.00340873
40.5	0.00332928
40.6	0.00325251
40.7	0.00318112
40.8	0.00310933
40.9	0.00304647
41	0.00298665
41.1	0.00292535
41.2	0.00285992
41.3	0.00279682
41.4	0.00274009
41.5	0.00268573
41.6	0.00263478
41.7	0.00258194
41.8	0.00252923
41.9	0.00247233
42	0.00241243
42.1	0.00235161
42.2	0.00229154
42.3	0.00222947
42.4	0.0021672
42.5	0.00210223
42.6	0.0020393
42.7	0.00198188
42.8	0.0019281
42.9	0.00187447
43	0.00182296
43.1	0.00177584
43.2	0.00173142
43.3	0.00168783
43.4	0.00164542
43.5	0.00160854
43.6	0.00157879
43.7	0.00155239
43.8	0.00152862
43.9	0.00150399
44	0.0014693
44.1	0.00142349
44.2	0.00137503
44.3	0.0013258
44.4	0.00127818
44.5	0.00122872
44.6	0.00117748
44.7	0.00112565
44.8	0.00107652
44.9	0.00103404
45	0.000990844
45.1	0.000947293
45.2	0.000903261
45.3	0.000856468
45.4	0.000803718
45.5	0.000743343
45.6	0.00068135
45.7	0.000623045
45.8	0.000568144
45.9	0.000512324
46	0.000460538
46.1	0.000417029
46.2	0.000383317
46.3	0.000352306
46.4	0.000326853
46.5	0.00030578
46.6	0.000286945
46.7	0.000269303
46.8	0.000258664
46.9	0.000250724
47	0.000246542
47.1	0.000250444
47.2	0.000259532
47.3	0.000271594
47.4	0.000285481
47.5	0.000298797
47.6	0.00031693
47.7	0.000340806
47.8	0.000370442
47.9	0.000409762
48	0.00045297
48.1	0.000498887
48.2	0.000548986
48.3	0.00060191
48.4	0.000659243
48.5	0.000720125
48.6	0.000778596
48.7	0.000834805
48.8	0.000892655
48.9	0.000950083
49	0.00100704
49.1	0.00106366
49.2	0.0011198
49.3	0.00117191
49.4	0.00122248
49.5	0.00127507
49.6	0.00133099
49.7	0.00138608
49.8	0.00143794
49.9	0.00149084
50	0.00154346
50.1	0.00159547
50.2	0.00164346
50.3	0.00168785
50.4	0.00172837
50.5	0.0017648
50.6	0.00179742
50.7	0.00182818
50.8	0.00185896
50.9	0.00188814
51	0.00191715
51.1	0.00194483
51.2	0.00196857
51.3	0.00198542
51.4	0.00199624
51.5	0.00200058
51.6	0.00200013
51.7	0.00200273
51.8	0.00201121
51.9	0.00202319
52	0.00203713
52.1	0.00204758
52.2	0.00205102
52.3	0.00205232
52.4	0.00205324
52.5	0.00205175
52.6	0.00205023
52.7	0.00205243
52.8	0.0020568
52.9	0.00205728
53	0.00205723
53.1	0.0020592
53.2	0.00206049
53.3	0.00206177
53.4	0.00206141
53.5	0.00206055
53.6	0.00205615
53.7	0.00204742
53.8	0.00203614
53.9	0.00201949
54	0.00200129
54.1	0.00198486
54.2	0.00197528
54.3	0.00196824
54.4	0.00196058
54.5	0.00195524
54.6	0.00195344
54.7	0.00194822
54.8	0.00193905
54.9	0.00193041
55	0.00192304
55.1	0.00191469
55.2	0.00190769
55.3	0.00189994
55.4	0.00189118
55.5	0.00187926
55.6	0.0018675
55.7	0.00185181
55.8	0.00183448
55.9	0.00181953
56	0.00180356
56.1	0.00178826
56.2	0.0017701
56.3	0.00175051
56.4	0.00172822
56.5	0.00170157
56.6	0.0016692
56.7	0.00163355
56.8	0.00159346
56.9	0.00155186
57	0.0015075
57.1	0.00146122
57.2	0.00141208
57.3	0.00136144
57.4	0.00131413
57.5	0.0012692
57.6	0.00122891
57.7	0.0011915
57.8	0.00115451
57.9	0.00111919
58	0.00108108
58.1	0.00103861
58.2	0.000989325
58.3	0.000936091
58.4	0.00088174
58.5	0.000822897
58.6	0.000769949
58.7	0.000722067
58.8	0.000678576
58.9	0.000630577
59	0.000581962
59.1	0.000534839
59.2	0.000486083
59.3	0.000432181
59.4	0.000376732
59.5	0.000316693
59.6	0.000257644
59.7	0.000199761
59.8	0.000137311
59.9	7.46229e-05
60	1.72501e-05
60.1	-3.82737e-05
60.2	-9.54037e-05
60.3	-0.000151143
60.4	-0.000208155
60.5	-0.000265848
60.6	-0.000321531
60.7	-0.00037528
60.8	-0.000425862
60.9	-0.000475716
61	-0.000530424
61.1	-0.000590929
61.2	-0.000652078
61.3	-0.000710687
61.4	-0.00076317
61.5	-0.000815394
61.6	-0.000869188
61.7	-0.000919542
61.8	-0.000966911
61.9	-0.00101043
62	-0.00105508
62.1	-0.00110228
62.2	-0.00114463
62.3	-0.00118328
62.4	-0.00122513
62.5	-0.00127101
62.6	-0.00131721
62.7	-0.00136394
62.8	-0.00141239
62.9	-0.00145825
63	-0.00150551
63.1	-0.0015536
63.2	-0.00160392
63.3	-0.0016528
63.4	-0.00169455
63.5	-0.00173416
63.6	-0.00177405
63.7	-0.0018111
63.8	-0.00184508
63.9	-0.00187351
64	-0.00189535
64.1	-0.00191487
64.2	-0.00193264
64.3	-0.00194804
64.4	-0.00195761
64.5	-0.0019658
64.6	-0.00197502
64.7	-0.00197932
64.8	-0.00197946
64.9	-0.00198352
65	-0.00199059
65.1	-0.00200097
65.2	-0.00201165
65.3	-0.00202114
65.4	-0.00202426
65.5	-0.00202965
65.6	-0.00203628
65.7	-0.0020417
65.8	-0.002046
65.9	-0.00204723
66	-0.00204251
66.1	-0.00203313
66.2	-0.00202184
66.3	-0.00200989
66.4	-0.00199488
66.5	-0.00197973
66.6	-0.00196331
66.7	-0.00194654
66.8	-0.00193175
66.9	-0.00192113
67	-0.00191231
67.1	-0.00190761
67.2	-0.00190992
67.3	-0.0019066
67.4	-0.00189345
67.5	-0.00187883
67.6	-0.0018665
67.7	-0.00185718
67.8	-0.00184834
67.9	-0.00183778
68	-0.00181986
68.1	-0.00179672
68.2	-0.00176939
68.3	-0.00174012
68.4	-0.00171217
68.5	-0.0016847
68.6	-0.00165607
68.7	-0.00163834
68.8	-0.00162502
68.9	-0.00161296
69	-0.00160315
69.1	-0.00159572
69.2	-0.00158835
69.3	-0.00158267
69.4	-0.00157261
69.5	-0.00156308
69.6	-0.00155513
69.7	-0.00154558
69.8	-0.00153171
69.9	-0.00151484
70	-0.00150103
70.1	-0.00148758
70.2	-0.00147823
70.3	-0.00147369
70.4	-0.00146953
70.5	-0.00146544
70.6	-0.00145771
70.7	-0.00145285
70.8	-0.00144784
70.9	-0.0014428
71	-0.00144018
71.1	-0.00143908
71.2	-0.00143633
71.3	-0.00143434
71.4	-0.00143228
71.5	-0.00143495
71.6	-0.00143248
71.7	-0.00142135
71.8	-0.00140393
71.9	-0.00138121
72	-0.00135705
72.1	-0.00132846
72.2	-0.00129885
72.3	-0.00126663
72.4	-0.00123237
72.5	-0.00119314
72.6	-0.00115224
72.7	-0.00110793
72.8	-0.00106519
72.9	-0.00102577
73	-0.00098079
73.1	-0.000933422
73.2	-0.000886633
73.3	-0.000834056
73.4	-0.000781222
73.5	-0.000732771
73.6	-0.000681506
73.7	-0.000635233
73.8	-0.000596408
73.9	-0.000556744
74	-0.000520585
74.1	-0.00048607
74.2	-0.000456837
74.3	-0.000432742
74.4	-0.000408937
74.5	-0.000385312
74.6	-0.000363356
74.7	-0.000343114
74.8	-0.000326325
74.9	-0.000310879
75	-0.000297947
75.1	-0.000282196
75.2	-0.000265986
75.3	-0.000245533
75.4	-0.000220076
75.5	-0.000195813
75.6	-0.000172991
75.7	-0.000145635
75.8	-0.000119193
75.9	-9.68652e-05
76	-7.61962e-05
76.1	-5.8936e-05
76.2	-4.53102e-05
76.3	-3.37425e-05
76.4	-2.67234e-05
76.5	-2.06834e-05
76.6	-1.4089e-05
76.7	-1.09111e-05
76.8	-9.98035e-06
76.9	-5.19479e-06
77	-4.12865e-07
77.1	6.47841e-06
77.2	1.44336e-05
77.3	2.60524e-05
77.4	4.0454e-05
77.5	5.75101e-05
77.6	7.81651e-05
77.7	9.88458e-05
77.8	0.000116936
77.9	0.000135107
78	0.000158095
78.1	0.000183097
78.2	0.000206755
78.3	0.000232659
78.4	0.000256057
78.5	0.000283224
78.6	0.00030857
78.7	0.000329563
78.8	0.000348647
78.9	0.000365887
79	0.000384117
79.1	0.000402177
79.2	0.000418098
79.3	0.000430605
79.4	0.000445344
79.5	0.00045828
79.6	0.000474102
79.7	0.000492801
79.8	0.000509237
79.9	0.000529776
80	0.000554266
80.1	0.000584696
80.2	0.000614303
80.3	0.00064246
80.4	0.000668241
80.5	0.000690146
80.6	0.000709402
80.7	0.000721218
80.8	0.000733054
80.9	0.000745141
81	0.000758352
81.1	0.000774619
81.2	0.000796626
81.3	0.000821363
81.4	0.000848032
81.5	0.000874096
81.6	0.000899952
81.7	0.000929115
81.8	0.000959647
81.9	0.000995027
82	0.00102758
82.1	0.00105655
82.2	0.00108537
82.3	0.00111425
82.4	0.00114182
82.5	0.00116706
82.6	0.00118953
82.7	0.00121301
82.8	0.00123642
82.9	0.00126114
83	0.00128947
83.1	0.00131571
83.2	0.00133829
83.3	0.00136144
83.4	0.00138398
83.5	0.00141079
83.6	0.00144104
83.7	0.0014733
83.8	0.00150842
83.9	0.00154297
84	0.00157635
84.1	0.00160613
84.2	0.00163769
84.3	0.00166718
84.4	0.00169585
84.5	0.00171911
84.6	0.00173916
84.7	0.00175786
84.8	0.00177274
84.9	0.00178076
85	0.00178538
85.1	0.00179243
85.2	0.00180207
85.3	0.0018118
85.4	0.00182025
85.5	0.00182629
85.6	0.00182681
85.7	0.00182335
85.8	0.00182496
85.9	0.00182992
86	0.00182923
86.1	0.00182015
86.2	0.00180538
86.3	0.00178989
86.4	0.00176961
86.5	0.00174758
86.6	0.00172494
86.7	0.00170324
86.8	0.00167897
86.9	0.00165282
87	0.00162892
87.1	0.0016055
87.2	0.00158569
87.3	0.00156632
87.4	0.0015508
87.5	0.00153501
87.6	0.00151172
87.7	0.00148854
87.8	0.00146363
87.9	0.00143796
88	0.00140542
88.1	0.00137178
88.2	0.00133851
88.3	0.00130147
88.4	0.00126143
88.5	0.00122131
88.6	0.00118365
88.7	0.00114779
88.8	0.00111725
88.9	0.00108945
89	0.00105998
89.1	0.00102991
89.2	0.00100101
89.3	0.000975279
89.4	0.000951603
89.5	0.000929097
89.6	0.000907469
89.7	0.000892938
89.8	0.000882347
89.9	0.00087505
90	0.000868259
90.1	0.000867063
90.2	0.000869096
90.3	0.000874351
90.4	0.000875684
90.5	0.000874381
90.6	0.000870133
90.7	0.000863349
90.8	0.000852581
90.9	0.000838499
91	0.000827607
91.1	0.000815657
91.2	0.000804096
91.3	0.000794945
91.4	0.000782726
91.5	0.000772907
91.6	0.000764992
91.7	0.000761667
91.8	0.000759278
91.9	0.000753887
92	0.000745522
92.1	0.000735871
92.2	0.000726579
92.3	0.000726115
92.4	0.000727056
92.5	0.000731736
92.6	0.000734997
92.7	0.000738536
92.8	0.000744971
92.9	0.000754888
93	0.000766913
93.1	0.000779723
93.2	0.000797386
93.3	0.000818153
93.4	0.000840564
93.5	0.00086237
93.6	0.000884787
93.7	0.000908311
93.8	0.000928318
93.9	0.000949888
94	0.00097044
94.1	0.000989273
94.2	0.00101199
94.3	0.00103625
94.4	0.00105847
94.5	0.00107585
94.6	0.00108886
94.7	0.00110405
94.8	0.00111965
94.9	0.00113582
95	0.00115471
95.1	0.0011773
95.2	0.00119924
95.3	0.00122204
95.4	0.00124387
95.5	0.00126774
95.6	0.00129041
95.7	0.00131388
95.8	0.00133615
95.9	0.00135394
96	0.00137027
96.1	0.00138372
96.2	0.00139879
96.3	0.00141475
96.4	0.00143049
96.5	0.00144221
96.6	0.00145081
96.7	0.00145398
96.8	0.00145104
96.9	0.00144769
97	0.0014454
97.1	0.00144187
97.2	0.00143485
97.3	0.00142314
97.4	0.00140985
97.5	0.00139641
97.6	0.00138822
97.7	0.0013804
97.8	0.00136738
97.9	0.00134811
98	0.00133274
98.1	0.00132249
98.2	0.00131502
98.3	0.00130722
98.4	0.00129599
98.5	0.00128359
98.6	0.00127159
98.7	0.00125357
98.8	0.00123539
98.9	0.00122037
99	0.00120259
99.1	0.00118393
99.2	0.001169
99.3	0.00115332
99.4	0.0011342
99.5	0.0011096
99.6	0.00108631
99.7	0.00106582
99.8	0.00103711
99.9	0.00100012
100	0.000960275
100.1	0.000918532
100.2	0.00087562
100.3	0.000832076
100.4	0.000786255
100.5	0.000742064
100.6	0.000699481
100.7	0.000657853
100.8	0.000620216
100.9	0.00058285
101	0.000549971
101.1	0.00051304
101.2	0.000476165
101.3	0.000440637
101.4	0.000402646
101.5	0.00035946
101.6	0.000312181
101.7	0.000270472
101.8	0.000229902
101.9	0.000190045
102	0.000150881
102.1	0.000114479
102.2	7.65238e-05
102.3	4.23256e-05
102.4	1.53609e-05
102.5	-6.44065e-06
102.6	-2.43957e-05
102.7	-4.08293e-05
102.8	-5.3961e-05
102.9	-6.85803e-05
103	-8.10035e-05
103.1	-9.00679e-05
103.2	-9.75456e-05
103.3	-0.000107021
103.4	-0.000120728
103.5	-0.000134013
103.6	-0.000150323
103.7	-0.000169691
103.8	-0.000193686
103.9	-0.000219241
104	-0.00023718
104.1	-0.000257145
104.2	-0.000280635
104.3	-0.000308807
104.4	-0.000339962
104.5	-0.000375247
104.6	-0.000413332
104.7	-0.000444837
104.8	-0.000469439
104.9	-0.000492578
105	-0.000515733
105.1	-0.000536957
105.2	-0.000554431
105.3	-0.000569351
105.4	-0.000583272
105.5	-0.000597005
105.6	-0.000612551
105.7	-0.000629569
105.8	-0.000643648
105.9	-0.000656563
106	-0.000670382
106.1	-0.000681682
106.2	-0.000695256
106.3	-0.000714699
106.4	-0.000734401
106.5	-0.000754207
106.6	-0.000775502
106.7	-0.00080015
106.8	-0.000823371
106.9	-0.000842557
107	-0.000861306
107.1	-0.000880953
107.2	-0.000898491
107.3	-0.000916158
107.4	-0.00093467
107.5	-0.000951548
107.6	-0.000965811
107.7	-0.000981282
107.8	-0.00100113
107.9	-0.00102471
108	-0.0010545
108.1	-0.00109266
108.2	-0.00113089
108.3	-0.00116784
108.4	-0.0012028
108.5	-0.00123963
108.6	-0.00128286
108.7	-0.00132905
108.8	-0.00137412
108.9	-0.00141335
109	-0.00144636
109.1	-0.00147945
109.2	-0.00151412
109.3	-0.00155471
109.4	-0.00159657
109.5	-0.00163941
109.6	-0.00168325
109.7	-0.00172621
109.8	-0.00176781
109.9	-0.00181093
110	-0.00185304
110.1	-0.00189744
110.2	-0.00194353
110.3	-0.00198943
110.4	-0.0020331
110.5	-0.00207767
110.6	-0.00212276
110.7	-0.00216618
110.8	-0.00220783
110.9	-0.00224734
111	-0.00228645
111.1	-0.00232491
111.2	-0.00236442
111.3	-0.00240213
111.4	-0.00243738
111.5	-0.00246512
111.6	-0.0024905
111.7	-0.00251545
111.8	-0.00253907
111.9	-0.00256227
112	-0.00258252
112.1	-0.00260032
112.2	-0.00261902
112.3	-0.00264338
112.4	-0.00267209
112.5	-0.00270392
112.6	-0.00273669
112.7	-0.00277653
112.8	-0.0028204
112.9	-0.00285803
113	-0.0028918
113.1	-0.0029209
113.2	-0.00295052
113.3	-0.00298106
113.4	-0.00301062
113.5	-0.00303777
113.6	-0.0030644
113.7	-0.00309381
113.8	-0.00311964
113.9	-0.00314021
114	-0.00315209
114.1	-0.00315244
114.2	-0.00314664
114.3	-0.00313459
114.4	-0.00311602
114.5	-0.00309529
114.6	-0.00307018
114.7	-0.00304303
114.8	-0.00301662
114.9	-0.00299361
115	-0.00297641
115.1	-0.0029608
115.2	-0.00294674
115.3	-0.00293996
115.4	-0.00294071
115.5	-0.00294213
115.6	-0.00295263
115.7	-0.00296372
115.8	-0.00297037
115.9	-0.00297578
116	-0.00297831
116.1	-0.00297803
116.2	-0.00297885
116.3	-0.00298
116.4	-0.00298534
116.5	-0.00299709
116.6	-0.00301162
116.7	-0.00303007
116.8	-0.00304996
116.9	-0.00307307
117	-0.0031004
117.1	-0.00312929
117.2	-0.0031595
117.3	-0.00318583
117.4	-0.00321398
117.5	-0.00324708
117.6	-0.00328705
117.7	-0.00332819
117.8	-0.00336865
117.9	-0.00340576
118	-0.00344236
118.1	-0.00348347
118.2	-0.00352386
118.3	-0.00356497
118.4	-0.00360768
118.5	-0.00364801
118.6	-0.00368568
118.7	-0.00372489
118.8	-0.00376419
118.9	-0.0037993
119	-0.00382879
119.1	-0.00385464
119.2	-0.00387317
119.3	-0.00388656
119.4	-0.00390162
119.5	-0.00391941
119.6	-0.00394375
119.7	-0.00397245
119.8	-0.00399813
119.9	-0.0040234
120	-0.00405013
120.1	-0.00407476
120.2	-0.00409909
120.3	-0.00412581
120.4	-0.00414919
120.5	-0.00417047
120.6	-0.00418891
120.7	-0.00420322
120.8	-0.00421425
120.9	-0.00422429
121	-0.00424025
121.1	-0.00426113
121.2	-0.00428389
121.3	-0.00430826
121.4	-0.00433616
121.5	-0.00436421
121.6	-0.00439492
121.7	-0.00442519
121.8	-0.00445372
121.9	-0.00448651
122	-0.00451777
122.1	-0.00454262
122.2	-0.00456459
122.3	-0.00458638
122.4	-0.00460865
122.5	-0.00463225
122.6	-0.00465372
122.7	-0.00466984
122.8	-0.00467761
122.9	-0.0046776
123	-0.00467597
123.1	-0.00467866
123.2	-0.00468205
123.3	-0.00468377
123.4	-0.00468201
123.5	-0.00467865
123.6	-0.00467756
123.7	-0.0046736
123.8	-0.00466416
123.9	-0.00465597
124	-0.00464968
124.1	-0.00464702
124.2	-0.0046446
124.3	-0.00464133
124.4	-0.0046391
124.5	-0.00463965
124.6	-0.00463803
124.7	-0.00463212
124.8	-0.00461908
124.9	-0.00460714
