LagTime	Correlation

0	3.36086
0.1	3.35585
0.2	3.34836
0.3	3.34029
0.4	3.33212
0.5	3.32397
0.6	3.31587
0.7	3.30782
0.8	3.29983
0.9	3.29188
1	3.28399
1.1	3.27615
1.2	3.26836
1.3	3.26062
1.4	3.25293
1.5	3.24529
1.6	3.2377
1.7	3.23016
1.8	3.22267
1.9	3.21523
2	3.20783
2.1	3.20047
2.2	3.19316
2.3	3.18588
2.4	3.17865
2.5	3.17146
2.6	3.16431
2.7	3.15721
2.8	3.15015
2.9	3.14314
3	3.13617
3.1	3.12924
3.2	3.12234
3.3	3.11548
3.4	3.10867
3.5	3.1019
3.6	3.09516
3.7	3.08847
3.8	3.0818
3.9	3.07516
4	3.06857
4.1	3.06201
4.2	3.05548
4.3	3.04898
4.4	3.04253
4.5	3.0361
4.6	3.0297
4.7	3.02334
4.8	3.01702
4.9	3.01072
5	3.00447
5.1	2.99824
5.2	2.99205
5.3	2.98588
5.4	2.97974
5.5	2.97363
5.6	2.96755
5.7	2.9615
5.8	2.95548
5.9	2.94948
6	2.94352
6.1	2.93758
6.2	2.93167
6.3	2.9258
6.4	2.91995
6.5	2.91413
6.6	2.90833
6.7	2.90256
6.8	2.89681
6.9	2.8911
7	2.88541
7.1	2.87975
7.2	2.87411
7.3	2.86851
7.4	2.86292
7.5	2.85736
7.6	2.85182
7.7	2.84631
7.8	2.84081
7.9	2.83535
8	2.8299
8.1	2.82448
8.2	2.81908
8.3	2.81369
8.4	2.80832
8.5	2.80298
8.6	2.79766
8.7	2.79236
8.8	2.78708
8.9	2.78183
9	2.77659
9.1	2.77137
9.2	2.76618
9.3	2.761
9.4	2.75585
9.5	2.75072
9.6	2.7456
9.7	2.74051
9.8	2.73543
9.9	2.73037
10	2.72532
10.1	2.72029
10.2	2.71528
10.3	2.71028
10.4	2.7053
10.5	2.70033
10.6	2.69539
10.7	2.69046
10.8	2.68556
10.9	2.68068
11	2.67582
11.1	2.67098
11.2	2.66616
11.3	2.66135
11.4	2.65657
11.5	2.65179
11.6	2.64703
11.7	2.64229
11.8	2.63755
11.9	2.63284
12	2.62813
12.1	2.62345
12.2	2.61877
12.3	2.61411
12.4	2.60946
12.5	2.60482
12.6	2.60019
12.7	2.59558
12.8	2.59097
12.9	2.58638
13	2.58181
13.1	2.57725
13.2	2.57272
13.3	2.56819
13.4	2.56367
13.5	2.55917
13.6	2.55467
13.7	2.55019
13.8	2.54572
13.9	2.54126
14	2.53681
14.1	2.53237
14.2	2.52794
14.3	2.52353
14.4	2.51913
14.5	2.51474
14.6	2.51035
14.7	2.50597
14.8	2.5016
14.9	2.49725
15	2.4929
15.1	2.48856
15.2	2.48423
15.3	2.47992
15.4	2.47561
15.5	2.47131
15.6	2.46703
15.7	2.46276
15.8	2.4585
15.9	2.45426
16	2.45002
16.1	2.44579
16.2	2.44156
16.3	2.43735
16.4	2.43315
16.5	2.42896
16.6	2.42478
16.7	2.42061
16.8	2.41646
16.9	2.41231
17	2.40817
17.1	2.40404
17.2	2.39992
17.3	2.39581
17.4	2.39171
17.5	2.38762
17.6	2.38353
17.7	2.37946
17.8	2.3754
17.9	2.37136
18	2.36732
18.1	2.36329
18.2	2.35926
18.3	2.35524
18.4	2.35123
18.5	2.34724
18.6	2.34326
18.7	2.33928
18.8	2.33532
18.9	2.33137
19	2.32743
19.1	2.32351
19.2	2.3196
19.3	2.3157
19.4	2.31181
19.5	2.30792
19.6	2.30405
19.7	2.30018
19.8	2.29632
19.9	2.29247
20	2.28862
20.1	2.28478
20.2	2.28095
20.3	2.27714
20.4	2.27334
20.5	2.26955
20.6	2.26576
20.7	2.26198
20.8	2.25821
20.9	2.25445
21	2.25069
21.1	2.24695
21.2	2.24322
21.3	2.2395
21.4	2.23579
21.5	2.23209
21.6	2.22838
21.7	2.22469
21.8	2.22099
21.9	2.21731
22	2.21363
22.1	2.20997
22.2	2.20631
22.3	2.20267
22.4	2.19903
22.5	2.19541
22.6	2.19179
22.7	2.18817
22.8	2.18457
22.9	2.18097
23	2.17738
23.1	2.17379
23.2	2.17021
23.3	2.16664
23.4	2.16308
23.5	2.15952
23.6	2.15597
23.7	2.15242
23.8	2.14888
23.9	2.14535
24	2.14184
24.1	2.13833
24.2	2.13484
24.3	2.13135
24.4	2.12786
24.5	2.12438
24.6	2.12091
24.7	2.11745
24.8	2.11399
24.9	2.11055
25	2.10711
25.1	2.10369
25.2	2.10027
25.3	2.09686
25.4	2.09346
25.5	2.09006
25.6	2.08668
25.7	2.0833
25.8	2.07993
25.9	2.07657
26	2.07322
26.1	2.06987
26.2	2.06654
26.3	2.06321
26.4	2.05989
26.5	2.05657
26.6	2.05327
26.7	2.04997
26.8	2.04668
26.9	2.04339
27	2.04012
27.1	2.03684
27.2	2.03356
27.3	2.03029
27.4	2.02702
27.5	2.02375
27.6	2.02049
27.7	2.01722
27.8	2.01397
27.9	2.01072
28	2.00748
28.1	2.00425
28.2	2.00104
28.3	1.99783
28.4	1.99462
28.5	1.99143
28.6	1.98824
28.7	1.98506
28.8	1.98187
28.9	1.97869
29	1.97551
29.1	1.97233
29.2	1.96916
29.3	1.96598
29.4	1.96282
29.5	1.95965
29.6	1.95649
29.7	1.95333
29.8	1.95017
29.9	1.94702
30	1.94387
30.1	1.94073
30.2	1.93759
30.3	1.93447
30.4	1.93135
30.5	1.92824
30.6	1.92514
30.7	1.92205
30.8	1.91897
30.9	1.91588
31	1.9128
31.1	1.90972
31.2	1.90664
31.3	1.90357
31.4	1.9005
31.5	1.89744
31.6	1.89439
31.7	1.89135
31.8	1.88833
31.9	1.88531
32	1.8823
32.1	1.8793
32.2	1.87631
32.3	1.87333
32.4	1.87035
32.5	1.86737
32.6	1.86439
32.7	1.86142
32.8	1.85845
32.9	1.85549
33	1.85253
33.1	1.84957
33.2	1.84662
33.3	1.84366
33.4	1.84072
33.5	1.83778
33.6	1.83484
33.7	1.8319
33.8	1.82897
33.9	1.82604
34	1.82312
34.1	1.82019
34.2	1.81727
34.3	1.81435
34.4	1.81142
34.5	1.80849
34.6	1.80557
34.7	1.80265
34.8	1.79973
34.9	1.79682
35	1.79392
35.1	1.79102
35.2	1.78813
35.3	1.78524
35.4	1.78235
35.5	1.77947
35.6	1.7766
35.7	1.77373
35.8	1.77088
35.9	1.76803
36	1.76519
36.1	1.76236
36.2	1.75954
36.3	1.75672
36.4	1.75392
36.5	1.75112
36.6	1.74832
36.7	1.74552
36.8	1.74273
36.9	1.73994
37	1.73715
37.1	1.73437
37.2	1.73159
37.3	1.72881
37.4	1.72604
37.5	1.72327
37.6	1.72051
37.7	1.71775
37.8	1.715
37.9	1.71225
38	1.7095
38.1	1.70676
38.2	1.70403
38.3	1.7013
38.4	1.69858
38.5	1.69586
38.6	1.69316
38.7	1.69046
38.8	1.68777
38.9	1.68508
39	1.68239
39.1	1.6797
39.2	1.67702
39.3	1.67435
39.4	1.67168
39.5	1.66902
39.6	1.66636
39.7	1.66371
39.8	1.66107
39.9	1.65843
40	1.65579
40.1	1.65315
40.2	1.65052
40.3	1.64788
40.4	1.64524
40.5	1.64261
40.6	1.63998
40.7	1.63736
40.8	1.63474
40.9	1.63212
41	1.62951
41.1	1.62691
41.2	1.62432
41.3	1.62173
41.4	1.61915
41.5	1.61657
41.6	1.61399
41.7	1.61142
41.8	1.60886
41.9	1.6063
42	1.60376
42.1	1.60122
42.2	1.59869
42.3	1.59615
42.4	1.59363
42.5	1.5911
42.6	1.58859
42.7	1.58607
42.8	1.58356
42.9	1.58106
43	1.57858
43.1	1.5761
43.2	1.57362
43.3	1.57115
43.4	1.56869
43.5	1.56624
43.6	1.56379
43.7	1.56135
43.8	1.55892
43.9	1.55649
44	1.55406
44.1	1.55163
44.2	1.54921
44.3	1.54679
44.4	1.54438
44.5	1.54198
44.6	1.53957
44.7	1.53716
44.8	1.53475
44.9	1.53235
45	1.52994
45.1	1.52754
45.2	1.52514
45.3	1.52274
45.4	1.52035
45.5	1.51796
45.6	1.51557
45.7	1.5132
45.8	1.51082
45.9	1.50845
46	1.50607
46.1	1.50369
46.2	1.50132
46.3	1.49894
46.4	1.49657
46.5	1.4942
46.6	1.49183
46.7	1.48946
46.8	1.4871
46.9	1.48474
47	1.4824
47.1	1.48006
47.2	1.47773
47.3	1.47541
47.4	1.47309
47.5	1.47079
47.6	1.4685
47.7	1.46622
47.8	1.46394
47.9	1.46167
48	1.4594
48.1	1.45713
48.2	1.45487
48.3	1.4526
48.4	1.45033
48.5	1.44808
48.6	1.44582
48.7	1.44358
48.8	1.44133
48.9	1.43909
49	1.43686
49.1	1.43463
49.2	1.4324
49.3	1.43017
49.4	1.42794
49.5	1.42571
49.6	1.42348
49.7	1.42126
49.8	1.41904
49.9	1.41684
50	1.41463
50.1	1.41243
50.2	1.41023
50.3	1.40804
50.4	1.40586
50.5	1.40367
50.6	1.40149
50.7	1.39931
50.8	1.39714
50.9	1.39497
51	1.3928
51.1	1.39065
51.2	1.3885
51.3	1.38635
51.4	1.3842
51.5	1.38206
51.6	1.37993
51.7	1.3778
51.8	1.37567
51.9	1.37356
52	1.37145
52.1	1.36935
52.2	1.36724
52.3	1.36514
52.4	1.36304
52.5	1.36095
52.6	1.35886
52.7	1.35677
52.8	1.35468
52.9	1.35259
53	1.35049
53.1	1.3484
53.2	1.34632
53.3	1.34424
53.4	1.34217
53.5	1.34009
53.6	1.33801
53.7	1.33593
53.8	1.33385
53.9	1.33177
54	1.32968
54.1	1.3276
54.2	1.32552
54.3	1.32344
54.4	1.32138
54.5	1.31932
54.6	1.31727
54.7	1.31523
54.8	1.31319
54.9	1.31116
55	1.30913
55.1	1.3071
55.2	1.30508
55.3	1.30307
55.4	1.30105
55.5	1.29904
55.6	1.29702
55.7	1.29501
55.8	1.293
55.9	1.29099
56	1.28899
56.1	1.287
56.2	1.28501
56.3	1.28303
56.4	1.28105
56.5	1.27907
56.6	1.2771
56.7	1.27514
56.8	1.27317
56.9	1.27121
57	1.26925
57.1	1.26729
57.2	1.26534
57.3	1.26339
57.4	1.26145
57.5	1.25951
57.6	1.25757
57.7	1.25564
57.8	1.25371
57.9	1.25177
58	1.24984
58.1	1.2479
58.2	1.24596
58.3	1.24403
58.4	1.2421
58.5	1.24016
58.6	1.23823
58.7	1.2363
58.8	1.23438
58.9	1.23246
59	1.23054
59.1	1.22862
59.2	1.22671
59.3	1.22479
59.4	1.22288
59.5	1.22096
59.6	1.21905
59.7	1.21713
59.8	1.21522
59.9	1.21331
60	1.21139
60.1	1.20948
60.2	1.20758
60.3	1.20567
60.4	1.20377
60.5	1.20187
60.6	1.19997
60.7	1.19808
60.8	1.1962
60.9	1.19433
61	1.19246
61.1	1.19059
61.2	1.18872
61.3	1.18686
61.4	1.185
61.5	1.18314
61.6	1.1813
61.7	1.17946
61.8	1.17761
61.9	1.17577
62	1.17393
62.1	1.17208
62.2	1.17024
62.3	1.1684
62.4	1.16656
62.5	1.16472
62.6	1.16289
62.7	1.16105
62.8	1.15923
62.9	1.15741
63	1.1556
63.1	1.1538
63.2	1.152
63.3	1.15021
63.4	1.14841
63.5	1.14662
63.6	1.14484
63.7	1.14306
63.8	1.14129
63.9	1.13953
64	1.13777
64.1	1.13602
64.2	1.13428
64.3	1.13253
64.4	1.13079
64.5	1.12905
64.6	1.12731
64.7	1.12558
64.8	1.12385
64.9	1.12213
65	1.12042
65.1	1.11871
65.2	1.11702
65.3	1.11532
65.4	1.11361
65.5	1.1119
65.6	1.11018
65.7	1.10847
65.8	1.10676
65.9	1.10505
66	1.10335
66.1	1.10167
66.2	1.09998
66.3	1.0983
66.4	1.09663
66.5	1.09495
66.6	1.09327
66.7	1.09158
66.8	1.08989
66.9	1.08821
67	1.08652
67.1	1.08484
67.2	1.08317
67.3	1.0815
67.4	1.07983
67.5	1.07817
67.6	1.07651
67.7	1.07485
67.8	1.0732
67.9	1.07155
68	1.06991
68.1	1.06828
68.2	1.06666
68.3	1.06503
68.4	1.0634
68.5	1.06178
68.6	1.06016
68.7	1.05854
68.8	1.05692
68.9	1.05531
69	1.0537
69.1	1.05209
69.2	1.05049
69.3	1.04889
69.4	1.04729
69.5	1.04569
69.6	1.0441
69.7	1.04251
69.8	1.04091
69.9	1.03932
70	1.03774
70.1	1.03615
70.2	1.03457
70.3	1.03299
70.4	1.03142
70.5	1.02984
70.6	1.02827
70.7	1.0267
70.8	1.02512
70.9	1.02356
71	1.022
71.1	1.02044
71.2	1.01888
71.3	1.01733
71.4	1.01577
71.5	1.01422
71.6	1.01266
71.7	1.01111
71.8	1.00957
71.9	1.00803
72	1.00649
72.1	1.00494
72.2	1.00339
72.3	1.00185
72.4	1.0003
72.5	0.998761
72.6	0.997221
72.7	0.995686
72.8	0.994158
72.9	0.992639
73	0.991126
73.1	0.989617
73.2	0.988108
73.3	0.9866
73.4	0.985094
73.5	0.983581
73.6	0.98207
73.7	0.980563
73.8	0.979057
73.9	0.97755
74	0.976051
74.1	0.97456
74.2	0.973071
74.3	0.971583
74.4	0.970102
74.5	0.968626
74.6	0.967151
74.7	0.965685
74.8	0.964226
74.9	0.962774
75	0.961326
75.1	0.959877
75.2	0.958428
75.3	0.95698
75.4	0.955532
75.5	0.954088
75.6	0.952646
75.7	0.951205
75.8	0.949766
75.9	0.948335
76	0.946912
76.1	0.945494
76.2	0.944083
76.3	0.942673
76.4	0.941262
76.5	0.939858
76.6	0.938451
76.7	0.937045
76.8	0.935637
76.9	0.93423
77	0.932828
77.1	0.931423
77.2	0.930017
77.3	0.928611
77.4	0.927209
77.5	0.925806
77.6	0.924406
77.7	0.923006
77.8	0.921607
77.9	0.920212
78	0.918821
78.1	0.917428
78.2	0.916031
78.3	0.914627
78.4	0.913218
78.5	0.911802
78.6	0.91038
78.7	0.908954
78.8	0.90753
78.9	0.906104
79	0.904675
79.1	0.903244
79.2	0.901813
79.3	0.900384
79.4	0.89896
79.5	0.897542
79.6	0.896124
79.7	0.894707
79.8	0.893295
79.9	0.891886
80	0.890482
80.1	0.889085
80.2	0.887693
80.3	0.886306
80.4	0.884924
80.5	0.883549
80.6	0.882178
80.7	0.880808
80.8	0.879441
80.9	0.878077
81	0.876722
81.1	0.875371
81.2	0.874022
81.3	0.872676
81.4	0.871334
81.5	0.869991
81.6	0.868648
81.7	0.867312
81.8	0.86598
81.9	0.864648
82	0.863317
82.1	0.861988
82.2	0.860658
82.3	0.859329
82.4	0.858001
82.5	0.856676
82.6	0.855359
82.7	0.854049
82.8	0.852743
82.9	0.851439
83	0.850135
83.1	0.84883
83.2	0.847529
83.3	0.846233
83.4	0.844941
83.5	0.843653
83.6	0.842369
83.7	0.841089
83.8	0.839812
83.9	0.838534
84	0.837252
84.1	0.835972
84.2	0.83469
84.3	0.833406
84.4	0.832118
84.5	0.830824
84.6	0.829527
84.7	0.82823
84.8	0.826939
84.9	0.825652
85	0.824369
85.1	0.823091
85.2	0.821811
85.3	0.820533
85.4	0.81925
85.5	0.817967
85.6	0.816687
85.7	0.815409
85.8	0.814134
85.9	0.812864
86	0.811596
86.1	0.81033
86.2	0.809063
86.3	0.807792
86.4	0.80652
86.5	0.805252
86.6	0.80399
86.7	0.802727
86.8	0.801467
86.9	0.80021
87	0.798953
87.1	0.797695
87.2	0.796438
87.3	0.795182
87.4	0.793926
87.5	0.792669
87.6	0.791413
87.7	0.790162
87.8	0.788915
87.9	0.787668
88	0.786424
88.1	0.785182
88.2	0.783946
88.3	0.782708
88.4	0.781469
88.5	0.780234
88.6	0.779005
88.7	0.77778
88.8	0.776558
88.9	0.77534
89	0.774123
89.1	0.772909
89.2	0.771698
89.3	0.770485
89.4	0.769274
89.5	0.768065
89.6	0.766857
89.7	0.76565
89.8	0.764443
89.9	0.763235
90	0.762029
90.1	0.760833
90.2	0.759644
90.3	0.758459
90.4	0.757278
90.5	0.756099
90.6	0.754925
90.7	0.753757
90.8	0.752592
90.9	0.751431
91	0.750274
91.1	0.749128
91.2	0.747988
91.3	0.746849
91.4	0.745712
91.5	0.74458
91.6	0.74345
91.7	0.742323
91.8	0.7412
91.9	0.740085
92	0.73898
92.1	0.737878
92.2	0.736779
92.3	0.735682
92.4	0.734587
92.5	0.7335
92.6	0.732417
92.7	0.731337
92.8	0.730256
92.9	0.729174
93	0.728092
93.1	0.727011
93.2	0.72593
93.3	0.724847
93.4	0.723768
93.5	0.722694
93.6	0.721621
93.7	0.720553
93.8	0.719484
93.9	0.71841
94	0.717335
94.1	0.716261
94.2	0.715187
94.3	0.714113
94.4	0.713037
94.5	0.711966
94.6	0.710896
94.7	0.709831
94.8	0.708774
94.9	0.707721
95	0.706666
95.1	0.705611
95.2	0.704553
95.3	0.703495
95.4	0.702442
95.5	0.701383
95.6	0.700324
95.7	0.699266
95.8	0.698205
95.9	0.69714
96	0.696077
96.1	0.695023
96.2	0.693972
96.3	0.692921
96.4	0.691872
96.5	0.690826
96.6	0.689777
96.7	0.688727
96.8	0.687673
96.9	0.686615
97	0.685557
97.1	0.684507
97.2	0.683463
97.3	0.682422
97.4	0.681383
97.5	0.680344
97.6	0.679303
97.7	0.678258
97.8	0.677209
97.9	0.676157
98	0.675101
98.1	0.674048
98.2	0.672993
98.3	0.671938
98.4	0.670878
98.5	0.669814
98.6	0.66875
98.7	0.667687
98.8	0.666629
98.9	0.665574
99	0.664521
99.1	0.663469
99.2	0.662415
99.3	0.661363
99.4	0.660311
99.5	0.65926
99.6	0.65821
99.7	0.657156
99.8	0.656097
99.9	0.655041
100	0.653987
100.1	0.652932
100.2	0.651876
100.3	0.65082
100.4	0.649763
100.5	0.648712
100.6	0.647667
100.7	0.646623
100.8	0.645587
100.9	0.644552
101	0.643518
101.1	0.642482
101.2	0.641445
101.3	0.640409
101.4	0.639376
101.5	0.638343
101.6	0.637309
101.7	0.636275
101.8	0.635238
101.9	0.634198
102	0.63316
102.1	0.632129
102.2	0.631102
102.3	0.63008
102.4	0.629062
102.5	0.628042
102.6	0.627024
102.7	0.62601
102.8	0.625001
102.9	0.624
103	0.622998
103.1	0.621999
103.2	0.621
103.3	0.620005
103.4	0.619015
103.5	0.618029
103.6	0.617049
103.7	0.616073
103.8	0.615099
103.9	0.614127
104	0.613158
104.1	0.612192
104.2	0.611231
104.3	0.61027
104.4	0.609304
104.5	0.608336
104.6	0.607366
104.7	0.606399
104.8	0.605435
104.9	0.604474
105	0.603513
105.1	0.602555
105.2	0.601602
105.3	0.600656
105.4	0.599713
105.5	0.598774
105.6	0.597835
105.7	0.596897
105.8	0.595967
105.9	0.595038
106	0.594114
106.1	0.593191
106.2	0.59227
106.3	0.591352
106.4	0.590435
106.5	0.589524
106.6	0.588615
106.7	0.587711
106.8	0.586809
106.9	0.585908
107	0.585006
107.1	0.584104
107.2	0.583205
107.3	0.582306
107.4	0.581407
107.5	0.580505
107.6	0.579598
107.7	0.57869
107.8	0.57778
107.9	0.576872
108	0.575968
108.1	0.575066
108.2	0.574168
108.3	0.573277
108.4	0.572394
108.5	0.571516
108.6	0.570636
108.7	0.56975
108.8	0.568861
108.9	0.567973
109	0.567087
109.1	0.566203
109.2	0.565319
109.3	0.564432
109.4	0.563544
109.5	0.562662
109.6	0.561781
109.7	0.560902
109.8	0.560025
109.9	0.559152
110	0.558283
110.1	0.557416
110.2	0.556551
110.3	0.555689
110.4	0.554832
110.5	0.553976
110.6	0.553119
110.7	0.552259
110.8	0.551398
110.9	0.550537
111	0.54968
111.1	0.548824
111.2	0.54797
111.3	0.547114
111.4	0.546259
111.5	0.545403
111.6	0.544551
111.7	0.543702
111.8	0.54285
111.9	0.541995
112	0.541141
112.1	0.54029
112.2	0.539441
112.3	0.538593
112.4	0.537749
112.5	0.536909
112.6	0.536065
112.7	0.535221
112.8	0.534377
112.9	0.533533
113	0.532689
113.1	0.531843
113.2	0.530998
113.3	0.530155
113.4	0.529314
113.5	0.528475
113.6	0.527641
113.7	0.526816
113.8	0.525991
113.9	0.525164
114	0.524334
114.1	0.5235
114.2	0.522665
114.3	0.521832
114.4	0.521
114.5	0.52017
114.6	0.519344
114.7	0.518518
114.8	0.517694
114.9	0.516874
115	0.516053
115.1	0.51523
115.2	0.514409
115.3	0.513593
115.4	0.512784
115.5	0.511977
115.6	0.511174
115.7	0.510375
115.8	0.509573
115.9	0.508774
116	0.507977
116.1	0.50718
116.2	0.50638
116.3	0.505582
116.4	0.504789
116.5	0.503997
116.6	0.503204
116.7	0.502413
116.8	0.501623
116.9	0.500835
117	0.500047
117.1	0.499257
117.2	0.498467
117.3	0.497678
117.4	0.496891
117.5	0.496103
117.6	0.495315
117.7	0.494527
117.8	0.493739
117.9	0.492948
118	0.492158
118.1	0.49137
118.2	0.490585
118.3	0.4898
118.4	0.48902
118.5	0.488246
118.6	0.487479
118.7	0.486719
118.8	0.485961
118.9	0.485205
119	0.484456
119.1	0.483713
119.2	0.482973
119.3	0.482241
119.4	0.481509
119.5	0.480777
119.6	0.480042
119.7	0.479301
119.8	0.478562
119.9	0.477826
120	0.47709
120.1	0.476356
120.2	0.475621
120.3	0.474884
120.4	0.474147
120.5	0.473414
120.6	0.472683
120.7	0.471948
120.8	0.471214
120.9	0.470485
121	0.469755
121.1	0.469021
121.2	0.468286
121.3	0.467548
121.4	0.466813
121.5	0.46608
121.6	0.465348
121.7	0.464619
121.8	0.463891
121.9	0.463155
122	0.462412
122.1	0.461667
122.2	0.460925
122.3	0.460185
122.4	0.459448
122.5	0.458714
122.6	0.457988
122.7	0.457265
122.8	0.456541
122.9	0.45582
123	0.455098
123.1	0.45438
123.2	0.453663
123.3	0.452946
123.4	0.452236
123.5	0.451529
123.6	0.450825
123.7	0.450123
123.8	0.449423
123.9	0.448724
124	0.448027
124.1	0.447328
124.2	0.446627
124.3	0.445931
124.4	0.445237
124.5	0.444542
124.6	0.443848
124.7	0.443151
124.8	0.442457
124.9	0.44176
125	0.441064
125.1	0.44037
125.2	0.439679
125.3	0.438988
125.4	0.438296
125.5	0.4376
125.6	0.436904
125.7	0.436208
125.8	0.435512
125.9	0.434819
126	0.434126
126.1	0.433435
126.2	0.432745
126.3	0.432053
126.4	0.43136
126.5	0.43067
126.6	0.429983
126.7	0.429292
126.8	0.428596
126.9	0.427893
127	0.427189
127.1	0.426485
127.2	0.42578
127.3	0.425073
127.4	0.424371
127.5	0.423674
127.6	0.422981
127.7	0.422292
127.8	0.421605
127.9	0.42092
128	0.420234
128.1	0.419547
128.2	0.418863
128.3	0.418181
128.4	0.417502
128.5	0.416826
128.6	0.416151
128.7	0.415472
128.8	0.41479
128.9	0.41411
129	0.41343
129.1	0.412748
129.2	0.412065
129.3	0.411383
129.4	0.410704
129.5	0.410025
129.6	0.409351
129.7	0.408683
129.8	0.408017
129.9	0.407353
130	0.406688
130.1	0.406025
130.2	0.405363
130.3	0.404702
130.4	0.404044
130.5	0.403391
130.6	0.402738
130.7	0.402088
130.8	0.401444
130.9	0.400804
131	0.400167
131.1	0.39953
131.2	0.398894
131.3	0.398258
131.4	0.397626
131.5	0.396995
131.6	0.396363
131.7	0.395733
131.8	0.395105
131.9	0.394476
132	0.393849
132.1	0.393221
132.2	0.392591
132.3	0.39196
132.4	0.39133
132.5	0.390707
132.6	0.390085
132.7	0.389457
132.8	0.388826
132.9	0.388189
133	0.38755
133.1	0.386915
133.2	0.386283
133.3	0.385654
133.4	0.385026
133.5	0.384398
133.6	0.383767
133.7	0.383144
133.8	0.382526
133.9	0.381907
134	0.381288
134.1	0.380669
134.2	0.380052
134.3	0.379439
134.4	0.378828
134.5	0.378217
134.6	0.377607
134.7	0.376999
134.8	0.376391
134.9	0.375785
135	0.375179
135.1	0.374569
135.2	0.373956
135.3	0.373339
135.4	0.372722
135.5	0.372106
135.6	0.371493
135.7	0.37088
135.8	0.370269
135.9	0.369663
136	0.369056
136.1	0.368452
136.2	0.367848
136.3	0.367246
136.4	0.366642
136.5	0.366034
136.6	0.365425
136.7	0.364821
136.8	0.364222
136.9	0.363623
137	0.363024
137.1	0.362429
137.2	0.361837
137.3	0.361248
137.4	0.36066
137.5	0.360069
137.6	0.359476
137.7	0.358889
137.8	0.358302
137.9	0.357714
138	0.357121
138.1	0.356525
138.2	0.355926
138.3	0.355327
138.4	0.354726
138.5	0.354124
138.6	0.353523
138.7	0.352924
138.8	0.352328
138.9	0.351733
139	0.351137
139.1	0.350539
139.2	0.349939
139.3	0.349337
139.4	0.348735
139.5	0.348134
139.6	0.347536
139.7	0.346941
139.8	0.346346
139.9	0.345749
140	0.345149
140.1	0.344551
140.2	0.343964
140.3	0.343386
140.4	0.34281
140.5	0.342241
140.6	0.341676
140.7	0.341109
140.8	0.340547
140.9	0.339989
141	0.339437
141.1	0.338887
141.2	0.33834
141.3	0.3378
141.4	0.337264
141.5	0.336735
141.6	0.336206
141.7	0.335681
141.8	0.33516
141.9	0.334638
142	0.334115
142.1	0.33359
142.2	0.333062
142.3	0.332534
142.4	0.332006
142.5	0.331481
142.6	0.330951
142.7	0.330422
142.8	0.329894
142.9	0.329367
143	0.328835
143.1	0.328299
143.2	0.327767
143.3	0.327239
143.4	0.326714
143.5	0.326191
143.6	0.325673
143.7	0.325156
143.8	0.324633
143.9	0.324107
144	0.323576
144.1	0.323045
144.2	0.322514
144.3	0.321982
144.4	0.321447
144.5	0.32091
144.6	0.320376
144.7	0.319838
144.8	0.319301
144.9	0.318762
145	0.318223
145.1	0.317687
145.2	0.317151
145.3	0.316614
145.4	0.316074
145.5	0.315536
145.6	0.315001
145.7	0.314469
145.8	0.313942
145.9	0.313421
146	0.312902
146.1	0.312385
146.2	0.31187
146.3	0.311358
146.4	0.310844
146.5	0.310328
146.6	0.309809
146.7	0.309291
146.8	0.30877
146.9	0.30825
147	0.30773
147.1	0.307208
147.2	0.306688
147.3	0.306175
147.4	0.30567
147.5	0.305176
147.6	0.304688
147.7	0.304201
147.8	0.303716
147.9	0.303231
148	0.302743
148.1	0.30225
148.2	0.301755
148.3	0.301257
148.4	0.300755
