LagTime	Correlation

0	0.666434
0.1	0.661416
0.2	0.653938
0.3	0.645922
0.4	0.637847
0.5	0.629834
0.6	0.621905
0.7	0.614072
0.8	0.606338
0.9	0.5987
1	0.59116
1.1	0.583716
1.2	0.576372
1.3	0.569122
1.4	0.561957
1.5	0.554878
1.6	0.54788
1.7	0.540968
1.8	0.534141
1.9	0.527402
2	0.520749
2.1	0.514182
2.2	0.507703
2.3	0.501307
2.4	0.494996
2.5	0.488763
2.6	0.482606
2.7	0.476528
2.8	0.470525
2.9	0.464599
3	0.458747
3.1	0.452972
3.2	0.447275
3.3	0.441652
3.4	0.436098
3.5	0.430618
3.6	0.425212
3.7	0.419876
3.8	0.414612
3.9	0.409412
4	0.404281
4.1	0.399213
4.2	0.39421
4.3	0.389272
4.4	0.3844
4.5	0.379593
4.6	0.374846
4.7	0.370155
4.8	0.365521
4.9	0.360948
5	0.356433
5.1	0.351969
5.2	0.347559
5.3	0.343202
5.4	0.338904
5.5	0.334657
5.6	0.33046
5.7	0.326316
5.8	0.322225
5.9	0.318189
6	0.314207
6.1	0.310272
6.2	0.306386
6.3	0.302552
6.4	0.298768
6.5	0.295033
6.6	0.291346
6.7	0.287709
6.8	0.28412
6.9	0.280575
7	0.277072
7.1	0.273611
7.2	0.270201
7.3	0.266835
7.4	0.263516
7.5	0.260243
7.6	0.257015
7.7	0.253832
7.8	0.25069
7.9	0.247588
8	0.244523
8.1	0.241492
8.2	0.238497
8.3	0.235542
8.4	0.232631
8.5	0.229758
8.6	0.226922
8.7	0.224123
8.8	0.221356
8.9	0.218627
9	0.215931
9.1	0.213269
9.2	0.210641
9.3	0.20805
9.4	0.205488
9.5	0.202954
9.6	0.200455
9.7	0.197991
9.8	0.195556
9.9	0.193155
10	0.19079
10.1	0.188459
10.2	0.186161
10.3	0.18389
10.4	0.181649
10.5	0.179435
10.6	0.177252
10.7	0.175096
10.8	0.172961
10.9	0.17085
11	0.168763
11.1	0.166703
11.2	0.16467
11.3	0.16266
11.4	0.160669
11.5	0.158692
11.6	0.156735
11.7	0.1548
11.8	0.152887
11.9	0.150997
12	0.149132
12.1	0.147291
12.2	0.145473
12.3	0.143677
12.4	0.141901
12.5	0.140153
12.6	0.138428
12.7	0.136726
12.8	0.135044
12.9	0.133379
13	0.131731
13.1	0.1301
13.2	0.128487
13.3	0.126897
13.4	0.125329
13.5	0.123782
13.6	0.12225
13.7	0.120734
13.8	0.119241
13.9	0.117767
14	0.116305
14.1	0.11486
14.2	0.113434
14.3	0.112032
14.4	0.110646
14.5	0.109278
14.6	0.107925
14.7	0.10659
14.8	0.105272
14.9	0.10397
15	0.102678
15.1	0.101405
15.2	0.100148
15.3	0.0989068
15.4	0.0976823
15.5	0.0964705
15.6	0.0952714
15.7	0.0940866
15.8	0.0929113
15.9	0.0917461
16	0.0905914
16.1	0.0894499
16.2	0.0883215
16.3	0.0872107
16.4	0.0861137
16.5	0.0850258
16.6	0.0839469
16.7	0.0828812
16.8	0.0818294
16.9	0.080792
17	0.0797688
17.1	0.078759
17.2	0.0777606
17.3	0.0767723
17.4	0.0757957
17.5	0.0748304
17.6	0.0738783
17.7	0.0729378
17.8	0.0720116
17.9	0.0711017
18	0.070206
18.1	0.0693201
18.2	0.0684437
18.3	0.0675779
18.4	0.0667244
18.5	0.0658885
18.6	0.0650658
18.7	0.0642561
18.8	0.0634578
18.9	0.0626768
19	0.0619043
19.1	0.0611417
19.2	0.0603843
19.3	0.0596373
19.4	0.0589019
19.5	0.0581785
19.6	0.057464
19.7	0.0567608
19.8	0.0560646
19.9	0.0553744
20	0.0546878
20.1	0.054008
20.2	0.0533399
20.3	0.0526824
20.4	0.0520368
20.5	0.0514005
20.6	0.0507758
20.7	0.0501611
20.8	0.0495481
20.9	0.0489372
21	0.0483308
21.1	0.0477327
21.2	0.0471406
21.3	0.0465565
21.4	0.0459735
21.5	0.0453985
21.6	0.0448326
21.7	0.0442721
21.8	0.0437211
21.9	0.0431785
22	0.0426428
22.1	0.0421092
22.2	0.0415816
22.3	0.0410617
22.4	0.0405546
22.5	0.0400537
22.6	0.0395602
22.7	0.0390714
22.8	0.0385883
22.9	0.0381112
23	0.037634
23.1	0.0371556
23.2	0.0366791
23.3	0.0362077
23.4	0.0357434
23.5	0.0352856
23.6	0.034836
23.7	0.0343952
23.8	0.0339575
23.9	0.033525
24	0.0330967
24.1	0.0326728
24.2	0.0322541
24.3	0.0318458
24.4	0.0314457
24.5	0.0310516
24.6	0.0306656
24.7	0.030286
24.8	0.0299048
24.9	0.0295267
25	0.0291522
25.1	0.0287852
25.2	0.0284232
25.3	0.0280633
25.4	0.0277083
25.5	0.0273589
25.6	0.0270167
25.7	0.0266826
25.8	0.0263553
25.9	0.0260359
26	0.0257232
26.1	0.0254137
26.2	0.025106
26.3	0.0248035
26.4	0.0245074
26.5	0.0242141
26.6	0.023925
26.7	0.0236353
26.8	0.0233471
26.9	0.0230624
27	0.0227811
27.1	0.0225002
27.2	0.0222163
27.3	0.0219316
27.4	0.0216538
27.5	0.0213784
27.6	0.0211059
27.7	0.020835
27.8	0.0205682
27.9	0.0202986
28	0.0200281
28.1	0.0197621
28.2	0.019504
28.3	0.0192556
28.4	0.0190125
28.5	0.0187738
28.6	0.0185374
28.7	0.0183049
28.8	0.0180688
28.9	0.0178367
29	0.0176062
29.1	0.0173806
29.2	0.0171578
29.3	0.0169377
29.4	0.0167167
29.5	0.0165037
29.6	0.0162934
29.7	0.0160853
29.8	0.0158795
29.9	0.0156752
30	0.0154746
30.1	0.0152748
30.2	0.015071
30.3	0.0148712
30.4	0.0146751
30.5	0.0144809
30.6	0.0142858
30.7	0.0140932
30.8	0.013905
30.9	0.0137206
31	0.0135379
31.1	0.0133615
31.2	0.0131879
31.3	0.0130139
31.4	0.0128376
31.5	0.0126572
31.6	0.0124749
31.7	0.0122988
31.8	0.0121215
31.9	0.0119436
32	0.01177
32.1	0.0115976
32.2	0.0114273
32.3	0.0112612
32.4	0.0110975
32.5	0.0109331
32.6	0.0107662
32.7	0.0105979
32.8	0.0104319
32.9	0.0102682
33	0.0101031
33.1	0.0099465
33.2	0.00979842
33.3	0.00965475
33.4	0.00950792
33.5	0.00935414
33.6	0.00920367
33.7	0.00905792
33.8	0.00891161
33.9	0.00876573
34	0.00862176
34.1	0.00848051
34.2	0.00833958
34.3	0.00820081
34.4	0.00806637
34.5	0.00793966
34.6	0.00781498
34.7	0.00769373
34.8	0.00757751
34.9	0.00746647
35	0.00735722
35.1	0.00724938
35.2	0.00714555
35.3	0.00704454
35.4	0.00694561
35.5	0.00684705
35.6	0.00674502
35.7	0.00664108
35.8	0.00653772
35.9	0.0064352
36	0.00633791
36.1	0.00624201
36.2	0.00614685
36.3	0.00605376
36.4	0.00596706
36.5	0.00588187
36.6	0.00579504
36.7	0.00570945
36.8	0.00562548
36.9	0.00554286
37	0.00546479
37.1	0.00538695
37.2	0.00531381
37.3	0.00524286
37.4	0.00517423
37.5	0.00510505
37.6	0.00503686
37.7	0.0049689
37.8	0.00489819
37.9	0.00481976
38	0.00473817
38.1	0.00465713
38.2	0.00458059
38.3	0.00450729
38.4	0.00443177
38.5	0.0043548
38.6	0.0042754
38.7	0.00419697
38.8	0.00411555
38.9	0.00403308
39	0.00395639
39.1	0.00388544
39.2	0.00381561
39.3	0.00374635
39.4	0.00367366
39.5	0.0036006
39.6	0.003523
39.7	0.00344366
39.8	0.00336731
39.9	0.00329249
40	0.00322056
40.1	0.0031506
40.2	0.00308359
40.3	0.00301434
40.4	0.00294609
40.5	0.00287816
40.6	0.00280917
40.7	0.00274271
40.8	0.00268369
40.9	0.00263078
41	0.00258344
41.1	0.00254345
41.2	0.0025054
41.3	0.00246713
41.4	0.00242664
41.5	0.00238755
41.6	0.00234576
41.7	0.00229701
41.8	0.00224655
41.9	0.00219652
42	0.00214981
42.1	0.00210179
42.2	0.00205128
42.3	0.00200205
42.4	0.00195188
42.5	0.00189917
42.6	0.00184487
42.7	0.00179166
42.8	0.00174497
42.9	0.00170343
43	0.00166557
43.1	0.00162896
43.2	0.00159583
43.3	0.00156775
43.4	0.00154081
43.5	0.00151078
43.6	0.00148032
43.7	0.00145328
43.8	0.00142426
43.9	0.00139591
44	0.0013703
44.1	0.00134482
44.2	0.00132307
44.3	0.00130429
44.4	0.0012847
44.5	0.00126648
44.6	0.00125209
44.7	0.00123548
44.8	0.00121797
44.9	0.00120095
45	0.00118746
45.1	0.00117804
45.2	0.001172
45.3	0.00116794
45.4	0.00116963
45.5	0.00117731
45.6	0.0011834
45.7	0.00118528
45.8	0.00118074
45.9	0.00117263
46	0.00116755
46.1	0.00116668
46.2	0.00116971
46.3	0.00117283
46.4	0.00117349
46.5	0.00117546
46.6	0.00118052
46.7	0.00119244
46.8	0.00120934
46.9	0.00122487
47	0.00123846
47.1	0.00125082
47.2	0.00126025
47.3	0.00126549
47.4	0.00126385
47.5	0.00125869
47.6	0.0012578
47.7	0.00125786
47.8	0.00126214
47.9	0.00126504
48	0.00126835
48.1	0.00126911
48.2	0.00126816
48.3	0.00126876
48.4	0.00126878
48.5	0.00127119
48.6	0.00126847
48.7	0.00126466
48.8	0.00125977
48.9	0.00125303
49	0.00124916
49.1	0.00124473
49.2	0.001242
49.3	0.00124184
49.4	0.00124575
49.5	0.00125136
49.6	0.00125444
49.7	0.00125361
49.8	0.00125354
49.9	0.00125469
50	0.00125432
50.1	0.00125692
50.2	0.00126111
50.3	0.00126957
50.4	0.0012788
50.5	0.00128791
50.6	0.00130198
50.7	0.00131474
50.8	0.00133051
50.9	0.00134743
51	0.00136681
51.1	0.00138318
51.2	0.00139824
51.3	0.00141094
51.4	0.00142772
51.5	0.00144446
51.6	0.00146136
51.7	0.00148108
51.8	0.0015034
51.9	0.00152021
52	0.00153543
52.1	0.00155154
52.2	0.00156407
52.3	0.00157787
52.4	0.00159401
52.5	0.00160949
52.6	0.00162484
52.7	0.00163344
52.8	0.00163793
52.9	0.00164152
53	0.00165124
53.1	0.00166349
53.2	0.00167647
53.3	0.0016855
53.4	0.00169241
53.5	0.00169422
53.6	0.00169807
53.7	0.00170155
53.8	0.00169642
53.9	0.00168501
54	0.00167081
54.1	0.00165743
54.2	0.00164746
54.3	0.00163943
54.4	0.00163459
54.5	0.00163257
54.6	0.00163307
54.7	0.00162601
54.8	0.00161331
54.9	0.00160188
55	0.0015899
55.1	0.0015715
55.2	0.00155363
55.3	0.00153799
55.4	0.001523
55.5	0.00151333
55.6	0.00150979
55.7	0.00150751
55.8	0.00150374
55.9	0.00149622
56	0.0014901
56.1	0.00148574
56.2	0.00148068
56.3	0.00147143
56.4	0.00145763
56.5	0.00143771
56.6	0.00141498
56.7	0.00139175
56.8	0.00137023
56.9	0.00134769
57	0.00133268
57.1	0.00132125
57.2	0.00131404
57.3	0.00130707
57.4	0.00130075
57.5	0.00129137
57.6	0.00127759
57.7	0.00126527
57.8	0.00124997
57.9	0.00123272
58	0.00121313
58.1	0.00118989
58.2	0.00116727
58.3	0.00114898
58.4	0.00113325
58.5	0.0011216
58.6	0.00111587
58.7	0.00111177
58.8	0.00110862
58.9	0.00110912
59	0.00111243
59.1	0.00111712
59.2	0.00112519
59.3	0.0011334
59.4	0.00113644
59.5	0.00113651
59.6	0.00113456
59.7	0.00112952
59.8	0.00112231
59.9	0.00111329
60	0.00110395
60.1	0.00109494
60.2	0.00108535
60.3	0.00107856
60.4	0.0010777
60.5	0.00108083
60.6	0.00108206
60.7	0.00108712
60.8	0.00109482
60.9	0.00109915
61	0.00110114
61.1	0.00110224
61.2	0.00110274
61.3	0.00110238
61.4	0.00110312
61.5	0.00110664
61.6	0.00110889
61.7	0.00110466
61.8	0.00109568
61.9	0.00108217
62	0.0010633
62.1	0.00104068
62.2	0.00101427
62.3	0.000985665
62.4	0.000957488
62.5	0.000925644
62.6	0.000894999
62.7	0.000865169
62.8	0.000838946
62.9	0.000821998
63	0.000810722
63.1	0.000797247
63.2	0.000786375
63.3	0.000781782
63.4	0.000785315
63.5	0.000790906
63.6	0.000797812
63.7	0.000801532
63.8	0.000796669
63.9	0.000783871
64	0.000766743
64.1	0.000742016
64.2	0.000712654
64.3	0.000684839
64.4	0.000659491
64.5	0.000637583
64.6	0.000615987
64.7	0.000596102
64.8	0.00057761
64.9	0.000558977
65	0.000538297
65.1	0.000513047
65.2	0.000483074
65.3	0.000447498
65.4	0.000411017
65.5	0.00037443
65.6	0.000336826
65.7	0.000299131
65.8	0.000268791
65.9	0.000243978
66	0.00022141
66.1	0.00019664
66.2	0.000169691
66.3	0.000141338
66.4	0.000110661
66.5	8.22207e-05
66.6	5.91795e-05
66.7	3.77209e-05
66.8	1.52758e-05
66.9	-1.03179e-05
67	-3.92063e-05
67.1	-7.26473e-05
67.2	-0.000105392
67.3	-0.000135552
67.4	-0.000159248
67.5	-0.000178121
67.6	-0.000193769
67.7	-0.000207267
67.8	-0.00022013
67.9	-0.000233744
68	-0.000248897
68.1	-0.000264337
68.2	-0.000283157
68.3	-0.000305091
68.4	-0.000322573
68.5	-0.000336629
68.6	-0.000349394
68.7	-0.000357831
68.8	-0.000361112
68.9	-0.0003619
69	-0.000360937
69.1	-0.000363644
69.2	-0.000366146
69.3	-0.00036873
69.4	-0.00037542
69.5	-0.000382955
69.6	-0.000391224
69.7	-0.000398205
69.8	-0.000405564
69.9	-0.000413967
70	-0.000426006
70.1	-0.000440985
70.2	-0.000451884
70.3	-0.00046339
70.4	-0.000469236
70.5	-0.000471216
70.6	-0.000471679
70.7	-0.000473949
70.8	-0.000478279
70.9	-0.000485086
71	-0.000493404
71.1	-0.000502236
71.2	-0.000511138
71.3	-0.00051975
71.4	-0.000529518
71.5	-0.000545012
71.6	-0.000565071
71.7	-0.000578339
71.8	-0.00058787
71.9	-0.000592901
72	-0.000597086
72.1	-0.000600724
72.2	-0.000608302
72.3	-0.000616039
72.4	-0.000619571
72.5	-0.000618688
72.6	-0.000617965
72.7	-0.000620974
72.8	-0.000628876
72.9	-0.000639707
73	-0.000651887
73.1	-0.000657237
73.2	-0.000657156
73.3	-0.000656253
73.4	-0.000654243
73.5	-0.000649135
73.6	-0.000643697
73.7	-0.000640586
73.8	-0.000633714
73.9	-0.000626508
74	-0.000617525
74.1	-0.000603837
74.2	-0.000587184
74.3	-0.000571237
74.4	-0.000553579
74.5	-0.000537692
74.6	-0.000528731
74.7	-0.000525268
74.8	-0.000525851
74.9	-0.000524061
75	-0.000518344
75.1	-0.000512586
75.2	-0.000501519
75.3	-0.000487778
75.4	-0.000472658
75.5	-0.000455432
75.6	-0.00043634
75.7	-0.000418616
75.8	-0.000398139
75.9	-0.00038116
76	-0.000364535
76.1	-0.000349893
76.2	-0.000340021
76.3	-0.000328959
76.4	-0.000314657
76.5	-0.00029786
76.6	-0.000280286
76.7	-0.000260537
76.8	-0.000240126
76.9	-0.000219297
77	-0.000197377
77.1	-0.000175038
77.2	-0.000154384
77.3	-0.000136022
77.4	-0.00011508
77.5	-9.57161e-05
77.6	-8.0474e-05
77.7	-6.63656e-05
77.8	-5.3123e-05
77.9	-3.39182e-05
78	-1.25585e-05
78.1	1.52001e-05
78.2	4.527e-05
78.3	7.77046e-05
78.4	0.000107217
78.5	0.000132451
78.6	0.000152376
78.7	0.000168185
78.8	0.000182606
78.9	0.000191572
79	0.000197784
79.1	0.000201406
79.2	0.000206407
79.3	0.000205054
79.4	0.000198685
79.5	0.000194462
79.6	0.00019035
79.7	0.000188885
79.8	0.000187122
79.9	0.000182643
80	0.000175551
80.1	0.000166246
80.2	0.000150899
80.3	0.000133396
80.4	0.000113528
80.5	8.83938e-05
80.6	6.07987e-05
80.7	3.63075e-05
80.8	1.07811e-05
80.9	-1.06649e-05
81	-3.21705e-05
81.1	-5.79969e-05
81.2	-8.58063e-05
81.3	-0.000113111
81.4	-0.000141684
81.5	-0.000171324
81.6	-0.000198241
81.7	-0.000225006
81.8	-0.000251212
81.9	-0.000280505
82	-0.000312131
82.1	-0.000345172
82.2	-0.000378562
82.3	-0.000410608
82.4	-0.000440723
82.5	-0.000467203
82.6	-0.00048635
82.7	-0.000504026
82.8	-0.000522012
82.9	-0.000536397
83	-0.000551403
83.1	-0.000564868
83.2	-0.000576366
83.3	-0.000590364
83.4	-0.000605107
83.5	-0.000617917
83.6	-0.000630866
83.7	-0.000637909
83.8	-0.000640673
83.9	-0.000638874
84	-0.000632804
84.1	-0.000623332
84.2	-0.000613273
84.3	-0.000602641
84.4	-0.000586901
84.5	-0.000569454
84.6	-0.000552549
84.7	-0.000534175
84.8	-0.000508994
84.9	-0.000481404
85	-0.00045042
85.1	-0.000416555
85.2	-0.000385482
85.3	-0.000358832
85.4	-0.000335625
85.5	-0.00031367
85.6	-0.000292997
85.7	-0.000273825
85.8	-0.000251823
85.9	-0.000235728
86	-0.000225414
86.1	-0.00021639
86.2	-0.000206947
86.3	-0.000199326
86.4	-0.000194141
86.5	-0.00018391
86.6	-0.00017488
86.7	-0.000163492
86.8	-0.000151679
86.9	-0.00013799
87	-0.000124899
87.1	-0.000116671
87.2	-0.000110337
87.3	-0.00010055
87.4	-9.41419e-05
87.5	-8.67759e-05
87.6	-8.00893e-05
87.7	-7.72408e-05
87.8	-7.99202e-05
87.9	-8.5654e-05
88	-9.39406e-05
88.1	-0.000105502
88.2	-0.000120027
88.3	-0.000137012
88.4	-0.000153484
88.5	-0.000167316
88.6	-0.000173387
88.7	-0.000175265
88.8	-0.000173292
88.9	-0.000170558
89	-0.000162257
89.1	-0.000152395
89.2	-0.000144104
89.3	-0.000140527
89.4	-0.000142642
89.5	-0.000146751
89.6	-0.000149517
89.7	-0.000152338
89.8	-0.000159768
89.9	-0.000172277
90	-0.000186997
90.1	-0.000203444
90.2	-0.000219344
90.3	-0.000235074
90.4	-0.00025593
90.5	-0.000276793
90.6	-0.000296479
90.7	-0.000319933
90.8	-0.000344622
90.9	-0.000364429
91	-0.000384281
91.1	-0.000400625
91.2	-0.00041569
91.3	-0.000428324
91.4	-0.000443097
91.5	-0.000459683
91.6	-0.000475456
91.7	-0.000493058
91.8	-0.000512936
91.9	-0.000535112
92	-0.000559831
92.1	-0.000587015
92.2	-0.000613971
92.3	-0.000644452
92.4	-0.000679384
92.5	-0.000715092
92.6	-0.000750999
92.7	-0.000786845
92.8	-0.000821548
92.9	-0.000856123
93	-0.000891407
93.1	-0.000925004
93.2	-0.000953367
93.3	-0.00097934
93.4	-0.00100131
93.5	-0.0010219
93.6	-0.00104049
93.7	-0.00106294
93.8	-0.00109042
93.9	-0.00111953
94	-0.00115345
94.1	-0.00118981
94.2	-0.00122639
94.3	-0.00126335
94.4	-0.00129767
94.5	-0.00133203
94.6	-0.00136825
94.7	-0.00140593
94.8	-0.00144695
94.9	-0.00148723
95	-0.00152294
95.1	-0.00155669
95.2	-0.00158441
95.3	-0.00160629
95.4	-0.00162067
95.5	-0.00163553
95.6	-0.00165152
95.7	-0.00166838
95.8	-0.00168511
95.9	-0.00170317
96	-0.00172129
96.1	-0.00174107
96.2	-0.0017627
96.3	-0.00178132
96.4	-0.0017999
96.5	-0.00181321
96.6	-0.00182238
96.7	-0.00183216
96.8	-0.00184136
96.9	-0.00184558
97	-0.00184924
97.1	-0.00185613
97.2	-0.00186791
97.3	-0.00187502
97.4	-0.00188337
97.5	-0.00189159
97.6	-0.00190196
97.7	-0.00191231
97.8	-0.00191984
97.9	-0.0019293
98	-0.00194257
98.1	-0.00195617
98.2	-0.00197489
98.3	-0.00199366
98.4	-0.00201373
98.5	-0.00203309
98.6	-0.00204859
98.7	-0.00206332
98.8	-0.00207812
98.9	-0.00208938
99	-0.00209797
99.1	-0.00210375
99.2	-0.00210532
99.3	-0.00210217
99.4	-0.0020999
99.5	-0.00209726
99.6	-0.0020947
99.7	-0.00208681
99.8	-0.00207896
99.9	-0.00207017
100	-0.00206288
100.1	-0.00204935
100.2	-0.0020319
100.3	-0.00201902
100.4	-0.00200917
100.5	-0.00200219
100.6	-0.00199665
100.7	-0.00198935
100.8	-0.00198076
100.9	-0.0019693
101	-0.00195691
101.1	-0.00193921
101.2	-0.00192337
101.3	-0.00191104
101.4	-0.00190215
101.5	-0.00189273
101.6	-0.00188231
101.7	-0.00186764
101.8	-0.00185326
101.9	-0.00183849
102	-0.00182532
102.1	-0.00181021
102.2	-0.00179809
102.3	-0.00178453
102.4	-0.00176619
102.5	-0.00174577
102.6	-0.00172604
102.7	-0.00170443
102.8	-0.00168289
102.9	-0.00166226
103	-0.00164159
103.1	-0.00161844
103.2	-0.00159352
103.3	-0.00156857
103.4	-0.00154503
103.5	-0.00152245
103.6	-0.00150016
103.7	-0.00147885
103.8	-0.00145996
103.9	-0.00143933
104	-0.00141765
104.1	-0.00139522
104.2	-0.00137053
104.3	-0.00134513
104.4	-0.00132395
104.5	-0.00130216
104.6	-0.00128542
104.7	-0.00127471
104.8	-0.00126815
104.9	-0.00126416
105	-0.00126546
105.1	-0.00127
105.2	-0.00126817
105.3	-0.00127027
105.4	-0.0012759
105.5	-0.00128348
105.6	-0.001287
105.7	-0.00128313
105.8	-0.00127269
105.9	-0.00126198
106	-0.00125349
106.1	-0.00124503
106.2	-0.00123564
106.3	-0.00122053
106.4	-0.00120033
106.5	-0.00117925
106.6	-0.0011596
106.7	-0.00113998
106.8	-0.00111947
106.9	-0.00109554
107	-0.00107275
107.1	-0.00105316
107.2	-0.00103465
107.3	-0.00101806
107.4	-0.00100137
107.5	-0.000983311
107.6	-0.000971531
107.7	-0.000962518
107.8	-0.000951541
107.9	-0.000943134
108	-0.00093624
108.1	-0.00093602
108.2	-0.000937824
108.3	-0.000939484
108.4	-0.000945986
108.5	-0.000950077
108.6	-0.000955042
108.7	-0.000962425
108.8	-0.00097704
108.9	-0.000994331
109	-0.00101509
109.1	-0.00103498
109.2	-0.0010568
109.3	-0.00107926
109.4	-0.0011006
109.5	-0.00111705
109.6	-0.00112556
109.7	-0.00112976
109.8	-0.00112843
109.9	-0.00112077
110	-0.00111019
110.1	-0.00109587
110.2	-0.00107923
110.3	-0.0010575
110.4	-0.00103564
110.5	-0.00101628
110.6	-0.000995234
110.7	-0.00096942
110.8	-0.000943009
110.9	-0.000918195
111	-0.000894679
111.1	-0.00086755
111.2	-0.00083494
111.3	-0.000802988
111.4	-0.000769983
111.5	-0.000733663
111.6	-0.000692981
111.7	-0.000651284
111.8	-0.000608144
111.9	-0.000565037
112	-0.000527403
112.1	-0.000494203
112.2	-0.000465913
112.3	-0.000441988
112.4	-0.000423209
112.5	-0.000407532
112.6	-0.00039594
112.7	-0.000385842
112.8	-0.000375767
112.9	-0.000366607
113	-0.000357971
113.1	-0.000349463
113.2	-0.000342766
113.3	-0.000337646
113.4	-0.000335371
113.5	-0.000333128
113.6	-0.000331838
113.7	-0.000332047
113.8	-0.000333972
113.9	-0.000334133
114	-0.000337577
114.1	-0.000337572
114.2	-0.000337522
114.3	-0.000335678
114.4	-0.000329293
114.5	-0.00032265
114.6	-0.000316044
114.7	-0.000308134
114.8	-0.000294899
114.9	-0.000279363
115	-0.00026199
115.1	-0.000239614
115.2	-0.000216632
115.3	-0.000192284
115.4	-0.000162173
115.5	-0.000134058
115.6	-0.00011187
115.7	-9.48514e-05
115.8	-8.02816e-05
115.9	-6.99277e-05
116	-6.20569e-05
116.1	-5.44872e-05
116.2	-4.03886e-05
116.3	-2.14062e-05
116.4	-3.65828e-06
116.5	8.22244e-06
116.6	2.24304e-05
116.7	4.31891e-05
116.8	7.06691e-05
116.9	9.86139e-05
117	0.000126265
117.1	0.000148099
117.2	0.000165772
117.3	0.000181608
117.4	0.000197382
117.5	0.000216784
117.6	0.000234091
117.7	0.000247714
117.8	0.000265047
117.9	0.000283121
118	0.000298068
118.1	0.000311746
118.2	0.000321838
118.3	0.00033219
118.4	0.000344761
118.5	0.000358154
118.6	0.000372601
118.7	0.00038625
118.8	0.00040907
118.9	0.000430335
119	0.000452943
119.1	0.000481011
119.2	0.000508473
119.3	0.000538538
119.4	0.000569981
119.5	0.000596195
119.6	0.000619213
119.7	0.000635384
119.8	0.000651569
119.9	0.000664706
120	0.000677539
120.1	0.000691089
120.2	0.000711938
120.3	0.000733548
120.4	0.000752533
120.5	0.000772849
120.6	0.00079621
120.7	0.000820001
120.8	0.000841053
120.9	0.000868907
121	0.000902651
121.1	0.000945444
121.2	0.000990308
121.3	0.0010315
121.4	0.00106988
121.5	0.00110662
121.6	0.00114145
121.7	0.00117581
121.8	0.00120711
121.9	0.0012338
122	0.00126454
122.1	0.00129404
122.2	0.00132709
122.3	0.00136166
122.4	0.00139911
122.5	0.00143834
122.6	0.00147996
122.7	0.00152009
122.8	0.00155642
122.9	0.00159116
123	0.00162036
123.1	0.00164298
123.2	0.00166622
123.3	0.00169408
123.4	0.00172428
123.5	0.00175506
123.6	0.00178665
123.7	0.00181655
