LagTime	Correlation

0	1.48771
0.1	1.4827
0.2	1.47521
0.3	1.46715
0.4	1.459
0.5	1.45089
0.6	1.44283
0.7	1.43483
0.8	1.42691
0.9	1.41905
1	1.41125
1.1	1.40353
1.2	1.39587
1.3	1.38827
1.4	1.38073
1.5	1.37325
1.6	1.36583
1.7	1.35848
1.8	1.3512
1.9	1.34398
2	1.33682
2.1	1.32972
2.2	1.32268
2.3	1.31569
2.4	1.30877
2.5	1.3019
2.6	1.29508
2.7	1.28833
2.8	1.28162
2.9	1.27496
3	1.26836
3.1	1.26182
3.2	1.25532
3.3	1.24888
3.4	1.24248
3.5	1.23612
3.6	1.22981
3.7	1.22355
3.8	1.21734
3.9	1.21117
4	1.20504
4.1	1.19896
4.2	1.19292
4.3	1.18693
4.4	1.18098
4.5	1.17509
4.6	1.16923
4.7	1.16342
4.8	1.15766
4.9	1.15194
5	1.14627
5.1	1.14064
5.2	1.13506
5.3	1.12952
5.4	1.12402
5.5	1.11856
5.6	1.11314
5.7	1.10776
5.8	1.10242
5.9	1.09712
6	1.09186
6.1	1.08663
6.2	1.08145
6.3	1.0763
6.4	1.07119
6.5	1.06612
6.6	1.06108
6.7	1.05607
6.8	1.0511
6.9	1.04617
7	1.04127
7.1	1.03641
7.2	1.03159
7.3	1.02679
7.4	1.02203
7.5	1.01729
7.6	1.0126
7.7	1.00793
7.8	1.0033
7.9	0.998703
8	0.994143
8.1	0.989622
8.2	0.985145
8.3	0.980702
8.4	0.976289
8.5	0.971912
8.6	0.967572
8.7	0.963262
8.8	0.958983
8.9	0.954732
9	0.950516
9.1	0.946327
9.2	0.94217
9.3	0.938041
9.4	0.933937
9.5	0.929861
9.6	0.925814
9.7	0.921792
9.8	0.917795
9.9	0.913824
10	0.909879
10.1	0.905961
10.2	0.902068
10.3	0.898202
10.4	0.894365
10.5	0.890562
10.6	0.886788
10.7	0.883042
10.8	0.879325
10.9	0.875635
11	0.87197
11.1	0.868331
11.2	0.864718
11.3	0.861127
11.4	0.857558
11.5	0.854011
11.6	0.85049
11.7	0.846994
11.8	0.843521
11.9	0.840078
12	0.836659
12.1	0.83326
12.2	0.829875
12.3	0.826506
12.4	0.823159
12.5	0.81983
12.6	0.816522
12.7	0.813241
12.8	0.809981
12.9	0.806739
13	0.803514
13.1	0.800307
13.2	0.797117
13.3	0.793948
13.4	0.790791
13.5	0.787654
13.6	0.784538
13.7	0.78144
13.8	0.778357
13.9	0.775296
14	0.772252
14.1	0.769224
14.2	0.766211
14.3	0.763216
14.4	0.760235
14.5	0.757271
14.6	0.754321
14.7	0.751386
14.8	0.748459
14.9	0.745549
15	0.742657
15.1	0.739781
15.2	0.736923
15.3	0.734079
15.4	0.731251
15.5	0.728436
15.6	0.725642
15.7	0.722866
15.8	0.720101
15.9	0.71735
16	0.714616
16.1	0.711902
16.2	0.709204
16.3	0.706527
16.4	0.703867
16.5	0.701223
16.6	0.698587
16.7	0.695958
16.8	0.693342
16.9	0.690745
17	0.688164
17.1	0.685599
17.2	0.683049
17.3	0.68051
17.4	0.677984
17.5	0.675475
17.6	0.672988
17.7	0.670516
17.8	0.668061
17.9	0.66562
18	0.663197
18.1	0.660784
18.2	0.658385
18.3	0.656001
18.4	0.653635
18.5	0.651281
18.6	0.648939
18.7	0.646608
18.8	0.644287
18.9	0.641978
19	0.639678
19.1	0.637386
19.2	0.635104
19.3	0.632834
19.4	0.630571
19.5	0.628316
19.6	0.626073
19.7	0.623842
19.8	0.62162
19.9	0.619417
20	0.61723
20.1	0.615057
20.2	0.612897
20.3	0.610749
20.4	0.608609
20.5	0.606482
20.6	0.604367
20.7	0.602258
20.8	0.600154
20.9	0.598062
21	0.595985
21.1	0.593922
21.2	0.591872
21.3	0.589836
21.4	0.587814
21.5	0.585801
21.6	0.583804
21.7	0.581816
21.8	0.57983
21.9	0.57785
22	0.575878
22.1	0.573919
22.2	0.57197
22.3	0.570036
22.4	0.568112
22.5	0.566201
22.6	0.564295
22.7	0.562401
22.8	0.560514
22.9	0.558634
23	0.556763
23.1	0.554904
23.2	0.553056
23.3	0.551218
23.4	0.549393
23.5	0.547575
23.6	0.545767
23.7	0.543965
23.8	0.542168
23.9	0.540374
24	0.53859
24.1	0.536817
24.2	0.535052
24.3	0.53329
24.4	0.531537
24.5	0.529793
24.6	0.528057
24.7	0.526324
24.8	0.524596
24.9	0.522877
25	0.521168
25.1	0.519467
25.2	0.517774
25.3	0.516093
25.4	0.514415
25.5	0.512737
25.6	0.511062
25.7	0.509394
25.8	0.507734
25.9	0.506083
26	0.50444
26.1	0.502802
26.2	0.50117
26.3	0.499546
26.4	0.49793
26.5	0.496323
26.6	0.494725
26.7	0.493131
26.8	0.491544
26.9	0.489965
27	0.488391
27.1	0.486821
27.2	0.485264
27.3	0.48372
27.4	0.482181
27.5	0.480647
27.6	0.47912
27.7	0.477602
27.8	0.476096
27.9	0.474594
28	0.4731
28.1	0.471611
28.2	0.470133
28.3	0.468659
28.4	0.467189
28.5	0.465717
28.6	0.464247
28.7	0.462781
28.8	0.461324
28.9	0.459876
29	0.458436
29.1	0.457001
29.2	0.455573
29.3	0.454153
29.4	0.452741
29.5	0.451336
29.6	0.44994
29.7	0.448549
29.8	0.447159
29.9	0.44577
30	0.444383
30.1	0.442997
30.2	0.441614
30.3	0.440234
30.4	0.438855
30.5	0.437479
30.6	0.436105
30.7	0.43473
30.8	0.433354
30.9	0.431983
31	0.430626
31.1	0.429281
31.2	0.427942
31.3	0.426608
31.4	0.425283
31.5	0.423969
31.6	0.422664
31.7	0.421369
31.8	0.420083
31.9	0.418804
32	0.417529
32.1	0.416262
32.2	0.414997
32.3	0.413735
32.4	0.412472
32.5	0.411215
32.6	0.409962
32.7	0.408711
32.8	0.407461
32.9	0.406218
33	0.404983
33.1	0.403758
33.2	0.402538
33.3	0.401331
33.4	0.400135
33.5	0.398952
33.6	0.397773
33.7	0.396594
33.8	0.39542
33.9	0.394245
34	0.393068
34.1	0.391895
34.2	0.390727
34.3	0.389562
34.4	0.388403
34.5	0.387252
34.6	0.386105
34.7	0.38496
34.8	0.383814
34.9	0.382674
35	0.381542
35.1	0.380415
35.2	0.379295
35.3	0.378181
35.4	0.377073
35.5	0.375969
35.6	0.374869
35.7	0.373775
35.8	0.372685
35.9	0.371598
36	0.370511
36.1	0.369428
36.2	0.36835
36.3	0.367285
36.4	0.366231
36.5	0.365182
36.6	0.364141
36.7	0.363109
36.8	0.362083
36.9	0.361066
37	0.360054
37.1	0.359041
37.2	0.358027
37.3	0.357019
37.4	0.356012
37.5	0.35501
37.6	0.354008
37.7	0.353009
37.8	0.352013
37.9	0.351018
38	0.350018
38.1	0.349019
38.2	0.348022
38.3	0.347027
38.4	0.346034
38.5	0.345044
38.6	0.344054
38.7	0.343072
38.8	0.342098
38.9	0.341129
39	0.34017
39.1	0.339223
39.2	0.338286
39.3	0.337358
39.4	0.336437
39.5	0.335517
39.6	0.334601
39.7	0.333687
39.8	0.332773
39.9	0.331859
40	0.330949
40.1	0.330043
40.2	0.329142
40.3	0.328243
40.4	0.327346
40.5	0.326444
40.6	0.325539
40.7	0.324633
40.8	0.323721
40.9	0.322811
41	0.321907
41.1	0.321011
41.2	0.320115
41.3	0.319217
41.4	0.318317
41.5	0.317418
41.6	0.31652
41.7	0.315623
41.8	0.314726
41.9	0.313829
42	0.312933
42.1	0.312033
42.2	0.311128
42.3	0.310226
42.4	0.309331
42.5	0.308433
42.6	0.307536
42.7	0.30664
42.8	0.305748
42.9	0.304857
43	0.30397
43.1	0.303088
43.2	0.302205
43.3	0.301326
43.4	0.300448
43.5	0.299577
43.6	0.298704
43.7	0.297832
43.8	0.296962
43.9	0.296094
44	0.29523
44.1	0.294369
44.2	0.293505
44.3	0.292644
44.4	0.29179
44.5	0.290937
44.6	0.290089
44.7	0.289243
44.8	0.288399
44.9	0.28756
45	0.286723
45.1	0.285887
45.2	0.285053
45.3	0.284221
45.4	0.283393
45.5	0.282575
45.6	0.281766
45.7	0.280962
45.8	0.280161
45.9	0.279367
46	0.278578
46.1	0.277797
46.2	0.277021
46.3	0.27625
46.4	0.275475
46.5	0.274696
46.6	0.273922
46.7	0.273154
46.8	0.27239
46.9	0.271625
47	0.270861
47.1	0.2701
47.2	0.269341
47.3	0.268581
47.4	0.267823
47.5	0.267067
47.6	0.266315
47.7	0.265568
47.8	0.264823
47.9	0.264086
48	0.263351
48.1	0.262617
48.2	0.261886
48.3	0.261158
48.4	0.260431
48.5	0.259702
48.6	0.258972
48.7	0.25824
48.8	0.257507
48.9	0.256775
49	0.256039
49.1	0.2553
49.2	0.254561
49.3	0.253826
49.4	0.253093
49.5	0.252362
49.6	0.251638
49.7	0.250916
49.8	0.250197
49.9	0.249479
50	0.248769
50.1	0.248067
50.2	0.247373
50.3	0.246683
50.4	0.245993
50.5	0.245303
50.6	0.244612
50.7	0.243925
50.8	0.243238
50.9	0.242552
51	0.241868
51.1	0.241178
51.2	0.24048
51.3	0.239776
51.4	0.239076
51.5	0.238376
51.6	0.237676
51.7	0.236979
51.8	0.236283
51.9	0.235588
52	0.234895
52.1	0.234203
52.2	0.233512
52.3	0.232817
52.4	0.232125
52.5	0.231439
52.6	0.230765
52.7	0.230093
52.8	0.229422
52.9	0.228755
53	0.228089
53.1	0.227427
53.2	0.22676
53.3	0.226087
53.4	0.225413
53.5	0.224741
53.6	0.224073
53.7	0.223408
53.8	0.222742
53.9	0.222074
54	0.221403
54.1	0.220739
54.2	0.220079
54.3	0.219427
54.4	0.218779
54.5	0.21813
54.6	0.217485
54.7	0.216847
54.8	0.216213
54.9	0.215583
55	0.214962
55.1	0.214349
55.2	0.213747
55.3	0.213149
55.4	0.212549
55.5	0.211947
55.6	0.211344
55.7	0.210744
55.8	0.210142
55.9	0.209542
56	0.208947
56.1	0.208357
56.2	0.207776
56.3	0.207199
56.4	0.206629
56.5	0.206054
56.6	0.205478
56.7	0.204897
56.8	0.204316
56.9	0.203733
57	0.203148
57.1	0.202567
57.2	0.201987
57.3	0.201411
57.4	0.200838
57.5	0.200265
57.6	0.199689
57.7	0.199117
57.8	0.198545
57.9	0.197975
58	0.197404
58.1	0.196838
58.2	0.196275
58.3	0.195712
58.4	0.195146
58.5	0.194577
58.6	0.194008
58.7	0.193441
58.8	0.192881
58.9	0.192335
59	0.191794
59.1	0.191253
59.2	0.190713
59.3	0.190177
59.4	0.189641
59.5	0.189101
59.6	0.188564
59.7	0.18803
59.8	0.187499
59.9	0.186969
60	0.18644
60.1	0.185915
60.2	0.185388
60.3	0.184861
60.4	0.184333
60.5	0.183804
60.6	0.183277
60.7	0.18275
60.8	0.182227
60.9	0.181709
61	0.181197
61.1	0.180685
61.2	0.180168
61.3	0.179648
61.4	0.179128
61.5	0.17861
61.6	0.178098
61.7	0.177589
61.8	0.177086
61.9	0.176587
62	0.17609
62.1	0.175596
62.2	0.175107
62.3	0.174621
62.4	0.174138
62.5	0.17366
62.6	0.173188
62.7	0.172721
62.8	0.172259
62.9	0.171798
63	0.17134
63.1	0.170883
63.2	0.17043
63.3	0.169976
63.4	0.169521
63.5	0.16906
63.6	0.16859
63.7	0.168121
63.8	0.167654
63.9	0.167185
64	0.166716
64.1	0.166243
64.2	0.165765
64.3	0.165287
64.4	0.164809
64.5	0.164332
64.6	0.163854
64.7	0.163376
64.8	0.162896
64.9	0.162419
65	0.161944
65.1	0.161479
65.2	0.161018
65.3	0.160558
65.4	0.160099
65.5	0.159641
65.6	0.159181
65.7	0.158724
65.8	0.158268
65.9	0.157812
66	0.157364
66.1	0.156922
66.2	0.156486
66.3	0.156052
66.4	0.155623
66.5	0.155202
66.6	0.154786
66.7	0.154377
66.8	0.153966
66.9	0.153552
67	0.153138
67.1	0.152726
67.2	0.152317
67.3	0.15191
67.4	0.151503
67.5	0.151099
67.6	0.150693
67.7	0.150282
67.8	0.149873
67.9	0.149465
68	0.149057
68.1	0.148647
68.2	0.148238
68.3	0.147826
68.4	0.147421
68.5	0.147025
68.6	0.146636
68.7	0.14625
68.8	0.145867
68.9	0.145487
69	0.145107
69.1	0.144728
69.2	0.144348
69.3	0.143969
69.4	0.143588
69.5	0.143201
69.6	0.142808
69.7	0.14241
69.8	0.142017
69.9	0.141625
70	0.141238
70.1	0.140855
70.2	0.140477
70.3	0.1401
70.4	0.139724
70.5	0.139348
70.6	0.138975
70.7	0.138604
70.8	0.138234
70.9	0.137861
71	0.137486
71.1	0.137107
71.2	0.136729
71.3	0.136355
71.4	0.135984
71.5	0.135618
71.6	0.135249
71.7	0.134881
71.8	0.134515
71.9	0.134149
72	0.133781
72.1	0.133407
72.2	0.133036
72.3	0.132665
72.4	0.132298
72.5	0.131933
72.6	0.131571
72.7	0.131208
72.8	0.130844
72.9	0.130486
73	0.130135
73.1	0.129785
73.2	0.129436
73.3	0.129089
73.4	0.128745
73.5	0.128404
73.6	0.128062
73.7	0.127719
73.8	0.127373
73.9	0.127031
74	0.126688
74.1	0.12635
74.2	0.126012
74.3	0.12567
74.4	0.125326
74.5	0.124979
74.6	0.124631
74.7	0.124281
74.8	0.123929
74.9	0.123576
75	0.123217
75.1	0.122855
75.2	0.122492
75.3	0.122127
75.4	0.121763
75.5	0.121397
75.6	0.121034
75.7	0.120677
75.8	0.120327
75.9	0.119982
76	0.119641
76.1	0.119308
76.2	0.118979
76.3	0.118648
76.4	0.118314
76.5	0.11798
76.6	0.117646
76.7	0.117313
76.8	0.116981
76.9	0.116653
77	0.116327
77.1	0.116004
77.2	0.115682
77.3	0.115359
77.4	0.115036
77.5	0.11471
77.6	0.114387
77.7	0.114067
77.8	0.113749
77.9	0.113433
78	0.113115
78.1	0.112797
78.2	0.112475
78.3	0.112148
78.4	0.111825
78.5	0.111504
78.6	0.111183
78.7	0.110863
78.8	0.110544
78.9	0.110228
79	0.109911
79.1	0.109598
79.2	0.109291
79.3	0.108989
79.4	0.108683
79.5	0.108378
79.6	0.108076
79.7	0.107778
79.8	0.107482
79.9	0.107187
80	0.106891
80.1	0.106596
80.2	0.106304
80.3	0.106009
80.4	0.105718
80.5	0.10543
80.6	0.105138
80.7	0.104846
80.8	0.104553
80.9	0.104257
81	0.103955
81.1	0.103653
81.2	0.103354
81.3	0.103055
81.4	0.102763
81.5	0.102476
81.6	0.102189
81.7	0.101902
81.8	0.101615
81.9	0.101335
82	0.101062
82.1	0.100792
82.2	0.10052
82.3	0.100247
82.4	0.0999764
82.5	0.0997065
82.6	0.0994391
82.7	0.0991702
82.8	0.0989028
82.9	0.0986344
83	0.0983665
83.1	0.0980965
83.2	0.0978253
83.3	0.0975546
83.4	0.0972898
83.5	0.0970285
83.6	0.0967745
83.7	0.0965214
83.8	0.0962731
83.9	0.0960254
84	0.0957762
84.1	0.0955261
84.2	0.0952774
84.3	0.0950299
84.4	0.0947823
84.5	0.0945306
84.6	0.0942785
84.7	0.0940285
84.8	0.0937806
84.9	0.0935345
85	0.093288
85.1	0.0930366
85.2	0.0927822
85.3	0.0925254
85.4	0.0922669
85.5	0.0920076
85.6	0.0917475
85.7	0.0914833
85.8	0.0912201
85.9	0.0909603
86	0.0907042
86.1	0.090446
86.2	0.0901877
86.3	0.0899313
86.4	0.0896753
86.5	0.0894141
86.6	0.089149
86.7	0.0888829
86.8	0.0886158
86.9	0.0883502
87	0.0880868
87.1	0.0878244
87.2	0.087566
87.3	0.0873057
87.4	0.0870433
87.5	0.0867804
87.6	0.0865204
87.7	0.0862623
87.8	0.0860054
87.9	0.0857463
88	0.0854873
88.1	0.0852276
88.2	0.084966
88.3	0.084702
88.4	0.0844396
88.5	0.0841795
88.6	0.0839167
88.7	0.0836578
88.8	0.083402
88.9	0.0831482
89	0.082895
89.1	0.0826419
89.2	0.0823885
89.3	0.0821346
89.4	0.0818786
89.5	0.0816248
89.6	0.0813769
89.7	0.0811279
89.8	0.0808822
89.9	0.0806423
90	0.0804076
90.1	0.0801756
90.2	0.0799463
90.3	0.0797196
90.4	0.0794968
90.5	0.0792776
90.6	0.0790604
90.7	0.0788486
90.8	0.0786403
90.9	0.0784295
91	0.0782204
91.1	0.07801
91.2	0.0777988
91.3	0.0775822
91.4	0.077368
91.5	0.0771588
91.6	0.0769532
91.7	0.0767524
91.8	0.0765527
91.9	0.0763544
92	0.076156
92.1	0.0759604
92.2	0.0757687
92.3	0.0755808
92.4	0.0754013
92.5	0.0752215
92.6	0.0750453
92.7	0.0748759
92.8	0.074717
92.9	0.0745631
93	0.0744103
93.1	0.0742607
93.2	0.0741133
93.3	0.0739637
93.4	0.0738078
93.5	0.0736463
93.6	0.0734814
93.7	0.0733198
93.8	0.0731612
93.9	0.0730015
94	0.0728344
94.1	0.0726635
94.2	0.0724894
94.3	0.072315
94.4	0.0721399
94.5	0.0719673
94.6	0.0717986
94.7	0.0716276
94.8	0.0714616
94.9	0.0712969
95	0.0711324
95.1	0.0709727
95.2	0.0708197
95.3	0.0706678
95.4	0.0705181
95.5	0.0703669
95.6	0.0702155
95.7	0.0700669
95.8	0.0699141
95.9	0.0697603
96	0.0696098
96.1	0.0694562
96.2	0.0692987
96.3	0.0691362
96.4	0.0689725
96.5	0.0688114
96.6	0.0686485
96.7	0.068482
96.8	0.0683153
96.9	0.0681507
97	0.0679857
97.1	0.0678214
97.2	0.0676577
97.3	0.0674978
97.4	0.0673399
97.5	0.0671801
97.6	0.0670191
97.7	0.0668527
97.8	0.0666784
97.9	0.0664996
98	0.0663188
98.1	0.0661339
98.2	0.0659531
98.3	0.0657765
98.4	0.0656025
98.5	0.0654294
98.6	0.065261
98.7	0.0650999
98.8	0.0649435
98.9	0.0647881
99	0.0646323
99.1	0.0644762
99.2	0.0643246
99.3	0.0641725
99.4	0.0640234
99.5	0.0638761
99.6	0.0637211
99.7	0.0635627
99.8	0.0633997
99.9	0.0632332
100	0.0630655
100.1	0.0628999
100.2	0.0627403
100.3	0.0625861
100.4	0.0624364
100.5	0.0622879
100.6	0.0621428
100.7	0.0619963
100.8	0.0618493
100.9	0.0617009
101	0.0615535
101.1	0.0614107
101.2	0.061271
101.3	0.0611342
101.4	0.0609969
101.5	0.0608541
101.6	0.0607088
101.7	0.060566
101.8	0.0604276
101.9	0.0602929
102	0.0601554
102.1	0.0600133
102.2	0.0598678
102.3	0.0597208
102.4	0.0595724
102.5	0.0594207
102.6	0.0592665
102.7	0.0591122
102.8	0.058952
102.9	0.0587901
103	0.0586313
103.1	0.0584776
103.2	0.0583274
103.3	0.0581781
103.4	0.0580311
103.5	0.0578882
103.6	0.0577458
103.7	0.0576004
103.8	0.0574536
103.9	0.0573057
104	0.057152
104.1	0.0569965
104.2	0.0568458
104.3	0.0566981
104.4	0.0565476
104.5	0.0564002
104.6	0.0562547
104.7	0.0561068
104.8	0.0559555
104.9	0.0558039
105	0.055656
105.1	0.0555101
105.2	0.055358
105.3	0.0552054
105.4	0.0550525
105.5	0.054899
105.6	0.0547411
105.7	0.0545789
105.8	0.0544142
105.9	0.0542464
106	0.0540796
106.1	0.0539118
106.2	0.0537405
106.3	0.0535651
106.4	0.0533914
106.5	0.0532164
106.6	0.0530408
106.7	0.0528634
106.8	0.052685
106.9	0.0525088
107	0.0523333
107.1	0.0521624
107.2	0.0519903
107.3	0.0518147
107.4	0.0516409
107.5	0.0514696
107.6	0.0512979
107.7	0.0511235
107.8	0.05095
107.9	0.050783
108	0.0506214
108.1	0.0504653
108.2	0.050312
108.3	0.0501628
108.4	0.0500178
108.5	0.0498764
108.6	0.049736
108.7	0.0495981
108.8	0.0494656
108.9	0.0493367
109	0.0492159
109.1	0.0490986
109.2	0.0489777
109.3	0.0488507
109.4	0.0487188
109.5	0.0485872
109.6	0.0484555
109.7	0.0483217
109.8	0.0481921
109.9	0.0480683
110	0.0479464
110.1	0.0478243
110.2	0.0477066
110.3	0.0475888
110.4	0.0474764
110.5	0.0473681
110.6	0.0472582
110.7	0.047148
110.8	0.047041
110.9	0.0469365
111	0.0468363
111.1	0.0467409
111.2	0.0466436
111.3	0.0465457
111.4	0.0464506
111.5	0.0463524
111.6	0.0462468
111.7	0.0461368
111.8	0.0460217
111.9	0.0459035
112	0.0457852
112.1	0.0456636
112.2	0.0455351
112.3	0.0454029
112.4	0.0452737
112.5	0.0451443
112.6	0.0450191
112.7	0.0448949
112.8	0.0447742
112.9	0.0446555
113	0.0445394
113.1	0.0444236
113.2	0.0443069
113.3	0.0441923
113.4	0.0440824
113.5	0.0439752
113.6	0.0438704
113.7	0.0437668
113.8	0.0436588
113.9	0.0435513
114	0.0434426
114.1	0.0433327
114.2	0.0432181
114.3	0.0431058
114.4	0.0429981
114.5	0.0428912
114.6	0.0427848
114.7	0.0426765
114.8	0.0425699
114.9	0.0424628
115	0.0423524
115.1	0.0422399
115.2	0.0421263
115.3	0.0420142
115.4	0.0419044
115.5	0.0417924
115.6	0.0416773
115.7	0.0415599
115.8	0.0414412
115.9	0.0413178
116	0.0411932
116.1	0.0410721
116.2	0.0409501
116.3	0.0408279
116.4	0.0407035
116.5	0.0405736
116.6	0.0404444
116.7	0.0403167
116.8	0.0401884
116.9	0.040057
117	0.0399221
117.1	0.0397879
117.2	0.039653
117.3	0.0395197
117.4	0.0393882
117.5	0.0392572
117.6	0.0391261
117.7	0.0389924
117.8	0.0388585
117.9	0.0387289
118	0.0386011
118.1	0.0384744
118.2	0.0383496
118.3	0.0382278
118.4	0.0381095
118.5	0.0379956
118.6	0.0378865
118.7	0.0377807
118.8	0.0376761
118.9	0.0375752
119	0.037477
119.1	0.0373741
119.2	0.037265
119.3	0.0371548
119.4	0.0370444
119.5	0.0369365
119.6	0.0368264
119.7	0.0367152
119.8	0.0366097
119.9	0.0365034
120	0.0363983
120.1	0.0362944
120.2	0.0361973
120.3	0.0361061
120.4	0.0360174
120.5	0.03593
120.6	0.0358466
120.7	0.0357597
120.8	0.0356734
120.9	0.0355876
121	0.0355079
121.1	0.0354359
121.2	0.035367
121.3	0.0352987
121.4	0.0352353
121.5	0.0351788
121.6	0.03512
121.7	0.0350619
121.8	0.0350059
121.9	0.0349511
122	0.0348916
122.1	0.0348287
122.2	0.0347644
122.3	0.0347073
122.4	0.034653
122.5	0.0345994
122.6	0.0345442
122.7	0.0344868
122.8	0.0344258
122.9	0.0343637
123	0.0342984
123.1	0.0342321
123.2	0.0341675
123.3	0.0341006
123.4	0.0340325
123.5	0.0339555
123.6	0.0338722
123.7	0.0337872
123.8	0.033699
123.9	0.0336081
124	0.0335157
124.1	0.0334246
124.2	0.0333372
124.3	0.0332515
124.4	0.0331643
124.5	0.0330669
124.6	0.0329639
124.7	0.0328606
124.8	0.0327605
124.9	0.0326614
125	0.0325651
125.1	0.0324687
125.2	0.0323724
125.3	0.0322777
125.4	0.0321849
125.5	0.0320953
125.6	0.0320152
125.7	0.0319369
125.8	0.0318624
125.9	0.0317886
126	0.0317155
126.1	0.0316387
126.2	0.0315579
126.3	0.0314787
126.4	0.0314022
126.5	0.0313293
126.6	0.0312575
126.7	0.0311853
126.8	0.0311082
126.9	0.0310253
127	0.0309395
127.1	0.0308491
127.2	0.0307588
127.3	0.030667
127.4	0.0305749
127.5	0.0304772
127.6	0.030372
127.7	0.0302627
127.8	0.0301508
127.9	0.0300392
128	0.0299291
128.1	0.0298142
128.2	0.0297017
128.3	0.0295857
128.4	0.0294674
128.5	0.0293466
128.6	0.0292274
128.7	0.0291088
128.8	0.0289856
128.9	0.028864
129	0.0287445
129.1	0.0286227
129.2	0.0284996
129.3	0.0283722
129.4	0.0282429
129.5	0.0281176
129.6	0.0279945
129.7	0.027876
129.8	0.0277665
129.9	0.0276589
130	0.0275504
130.1	0.0274424
130.2	0.0273382
130.3	0.0272387
130.4	0.0271391
130.5	0.0270375
130.6	0.0269383
130.7	0.0268469
130.8	0.0267585
130.9	0.0266644
131	0.0265699
131.1	0.0264788
131.2	0.0263869
131.3	0.0262941
131.4	0.0261978
131.5	0.0260992
131.6	0.0259943
131.7	0.0258869
131.8	0.0257858
131.9	0.0256866
132	0.0255871
132.1	0.0254888
132.2	0.0253858
132.3	0.025277
132.4	0.0251652
132.5	0.0250448
132.6	0.0249193
132.7	0.0247906
132.8	0.0246665
132.9	0.0245494
133	0.0244354
133.1	0.0243251
133.2	0.0242199
133.3	0.0241197
133.4	0.0240204
133.5	0.0239202
133.6	0.0238219
133.7	0.0237262
133.8	0.0236327
133.9	0.0235447
134	0.0234567
134.1	0.0233688
134.2	0.0232831
134.3	0.0231987
134.4	0.0231166
134.5	0.0230386
134.6	0.0229656
134.7	0.0228928
134.8	0.0228235
134.9	0.0227533
135	0.0226816
135.1	0.0226127
135.2	0.0225428
135.3	0.0224769
135.4	0.0224164
135.5	0.0223519
135.6	0.0222818
135.7	0.0222056
135.8	0.0221266
135.9	0.0220482
136	0.0219726
136.1	0.0218962
136.2	0.0218195
136.3	0.0217485
136.4	0.0216828
136.5	0.0216226
136.6	0.0215647
136.7	0.0215033
136.8	0.0214387
136.9	0.0213787
137	0.0213184
137.1	0.0212605
137.2	0.0212034
137.3	0.0211434
137.4	0.0210794
137.5	0.0210162
137.6	0.0209509
137.7	0.0208828
137.8	0.0208059
137.9	0.0207229
138	0.0206387
138.1	0.0205587
138.2	0.0204856
138.3	0.0204125
138.4	0.0203388
138.5	0.0202614
138.6	0.0201788
138.7	0.0200917
138.8	0.0200035
138.9	0.0199145
139	0.019822
139.1	0.0197262
139.2	0.0196326
139.3	0.0195415
139.4	0.0194507
139.5	0.0193611
139.6	0.0192673
139.7	0.0191732
139.8	0.0190833
