LagTime	Correlation

0	0.671743
0.1	0.666725
0.2	0.659245
0.3	0.651225
0.4	0.64315
0.5	0.635136
0.6	0.627215
0.7	0.619394
0.8	0.611674
0.9	0.60405
1	0.59652
1.1	0.589083
1.2	0.581738
1.3	0.574482
1.4	0.567316
1.5	0.560242
1.6	0.553257
1.7	0.546358
1.8	0.539547
1.9	0.532825
2	0.526187
2.1	0.519634
2.2	0.513164
2.3	0.506774
2.4	0.500461
2.5	0.494234
2.6	0.488083
2.7	0.482004
2.8	0.475996
2.9	0.470061
3	0.4642
3.1	0.458415
3.2	0.452696
3.3	0.447045
3.4	0.441465
3.5	0.435948
3.6	0.4305
3.7	0.425124
3.8	0.419816
3.9	0.414577
4	0.409406
4.1	0.404302
4.2	0.399257
4.3	0.39427
4.4	0.389343
4.5	0.384474
4.6	0.379665
4.7	0.374917
4.8	0.370231
4.9	0.36561
5	0.361052
5.1	0.356552
5.2	0.352108
5.3	0.347719
5.4	0.343391
5.5	0.339124
5.6	0.334905
5.7	0.330737
5.8	0.326623
5.9	0.322563
6	0.318552
6.1	0.314592
6.2	0.310682
6.3	0.306826
6.4	0.303021
6.5	0.299267
6.6	0.295563
6.7	0.291909
6.8	0.288303
6.9	0.284741
7	0.281226
7.1	0.277757
7.2	0.274331
7.3	0.270941
7.4	0.267594
7.5	0.264285
7.6	0.26102
7.7	0.257798
7.8	0.254609
7.9	0.251455
8	0.248338
8.1	0.245249
8.2	0.242194
8.3	0.23917
8.4	0.236184
8.5	0.23324
8.6	0.230339
8.7	0.227478
8.8	0.224651
8.9	0.221862
9	0.21911
9.1	0.216393
9.2	0.213709
9.3	0.21106
9.4	0.208445
9.5	0.205869
9.6	0.203329
9.7	0.200822
9.8	0.198346
9.9	0.195902
10	0.193485
10.1	0.1911
10.2	0.18874
10.3	0.186403
10.4	0.184091
10.5	0.181802
10.6	0.17954
10.7	0.177307
10.8	0.175106
10.9	0.172934
11	0.170784
11.1	0.168659
11.2	0.166559
11.3	0.164479
11.4	0.16242
11.5	0.160384
11.6	0.158374
11.7	0.156393
11.8	0.154437
11.9	0.152504
12	0.150597
12.1	0.148715
12.2	0.146857
12.3	0.145023
12.4	0.143212
12.5	0.141418
12.6	0.139638
12.7	0.137873
12.8	0.136131
12.9	0.134415
13	0.132721
13.1	0.131046
13.2	0.129393
13.3	0.127753
13.4	0.126123
13.5	0.124509
13.6	0.122919
13.7	0.121353
13.8	0.119811
13.9	0.118292
14	0.116792
14.1	0.115312
14.2	0.113852
14.3	0.112408
14.4	0.110978
14.5	0.109569
14.6	0.108182
14.7	0.106815
14.8	0.105468
14.9	0.104141
15	0.102838
15.1	0.101555
15.2	0.100289
15.3	0.0990446
15.4	0.0978192
15.5	0.0966127
15.6	0.0954221
15.7	0.0942431
15.8	0.0930795
15.9	0.0919246
16	0.0907801
16.1	0.0896441
16.2	0.0885217
16.3	0.0874135
16.4	0.0863216
16.5	0.0852457
16.6	0.0841823
16.7	0.0831351
16.8	0.0821081
16.9	0.0810994
17	0.0801056
17.1	0.079122
17.2	0.0781505
17.3	0.0771913
17.4	0.0762409
17.5	0.0753029
17.6	0.074374
17.7	0.0734564
17.8	0.0725469
17.9	0.0716445
18	0.0707502
18.1	0.0698656
18.2	0.0689899
18.3	0.06812
18.4	0.0672556
18.5	0.0664033
18.6	0.0655623
18.7	0.0647236
18.8	0.0638917
18.9	0.0630645
19	0.062248
19.1	0.0614418
19.2	0.060651
19.3	0.0598709
19.4	0.0591011
19.5	0.0583408
19.6	0.05759
19.7	0.056847
19.8	0.0561123
19.9	0.0553852
20	0.054664
20.1	0.0539556
20.2	0.0532569
20.3	0.0525649
20.4	0.0518781
20.5	0.0512005
20.6	0.050532
20.7	0.0498721
20.8	0.0492197
20.9	0.048573
21	0.0479355
21.1	0.0473113
21.2	0.0466967
21.3	0.0460917
21.4	0.0454942
21.5	0.0449054
21.6	0.044323
21.7	0.0437473
21.8	0.0431748
21.9	0.0426056
22	0.0420424
22.1	0.0414805
22.2	0.040921
22.3	0.0403606
22.4	0.0398006
22.5	0.0392436
22.6	0.0386865
22.7	0.0381307
22.8	0.0375794
22.9	0.0370355
23	0.0364979
23.1	0.0359672
23.2	0.0354429
23.3	0.0349256
23.4	0.0344159
23.5	0.0339161
23.6	0.0334302
23.7	0.0329587
23.8	0.0324954
23.9	0.0320388
24	0.0315878
24.1	0.0311362
24.2	0.0306879
24.3	0.0302453
24.4	0.0298088
24.5	0.0293792
24.6	0.0289579
24.7	0.0285516
24.8	0.0281624
24.9	0.0277823
25	0.0274146
25.1	0.0270524
25.2	0.0266977
25.3	0.0263495
25.4	0.0260063
25.5	0.0256669
25.6	0.025333
25.7	0.024999
25.8	0.0246658
25.9	0.0243313
26	0.0239943
26.1	0.0236543
26.2	0.0233144
26.3	0.0229737
26.4	0.0226355
26.5	0.0222964
26.6	0.0219579
26.7	0.0216209
26.8	0.0212868
26.9	0.0209558
27	0.0206334
27.1	0.0203176
27.2	0.0200046
27.3	0.0196976
27.4	0.0193986
27.5	0.0191005
27.6	0.0188042
27.7	0.0185094
27.8	0.0182201
27.9	0.0179409
28	0.0176614
28.1	0.0173797
28.2	0.0171019
28.3	0.0168249
28.4	0.0165508
28.5	0.0162813
28.6	0.0160166
28.7	0.0157546
28.8	0.0154952
28.9	0.0152402
29	0.0149901
29.1	0.0147448
29.2	0.0145018
29.3	0.0142556
29.4	0.0140072
29.5	0.0137607
29.6	0.0135181
29.7	0.0132839
29.8	0.0130545
29.9	0.012829
30	0.0126072
30.1	0.012391
30.2	0.0121808
30.3	0.0119787
30.4	0.0117791
30.5	0.0115833
30.6	0.0113913
30.7	0.011206
30.8	0.0110234
30.9	0.0108409
31	0.0106573
31.1	0.0104741
31.2	0.0102898
31.3	0.0101081
31.4	0.0099338
31.5	0.00976901
31.6	0.00960468
31.7	0.00944441
31.8	0.00929114
31.9	0.00914046
32	0.0089903
32.1	0.00884546
32.2	0.00870481
32.3	0.00856889
32.4	0.00843283
32.5	0.00829642
32.6	0.00816109
32.7	0.00802602
32.8	0.00789166
32.9	0.00776275
33	0.00763568
33.1	0.0075086
33.2	0.00738162
33.3	0.00725493
33.4	0.00712627
33.5	0.00699674
33.6	0.00686599
33.7	0.00673866
33.8	0.00661305
33.9	0.00648606
34	0.00636205
34.1	0.00623861
34.2	0.00611878
34.3	0.00600313
34.4	0.00588603
34.5	0.00577395
34.6	0.00566733
34.7	0.00556128
34.8	0.00545619
34.9	0.00534772
35	0.00523649
35.1	0.0051229
35.2	0.00500761
35.3	0.00488971
35.4	0.00476499
35.5	0.0046331
35.6	0.00449789
35.7	0.00436203
35.8	0.00422864
35.9	0.0040974
36	0.00396663
36.1	0.00383993
36.2	0.00371564
36.3	0.00359319
36.4	0.00347629
36.5	0.00336037
36.6	0.00324245
36.7	0.00312232
36.8	0.00300538
36.9	0.00289577
37	0.00279302
37.1	0.00269351
37.2	0.00259515
37.3	0.0025023
37.4	0.00240749
37.5	0.00231018
37.6	0.00221034
37.7	0.00211306
37.8	0.00202064
37.9	0.00193364
38	0.00185516
38.1	0.00178383
38.2	0.00171219
38.3	0.00164395
38.4	0.00157573
38.5	0.00151138
38.6	0.0014545
38.7	0.0013963
38.8	0.00133679
38.9	0.00127583
39	0.00121616
39.1	0.00115755
39.2	0.00110241
39.3	0.0010443
39.4	0.000982541
39.5	0.000916533
39.6	0.000850689
39.7	0.000787071
39.8	0.00072575
39.9	0.00066675
40	0.000613428
40.1	0.000558972
40.2	0.000504448
40.3	0.000457183
40.4	0.00041058
40.5	0.000368652
40.6	0.000330005
40.7	0.000290194
40.8	0.000248061
40.9	0.000199675
41	0.000150175
41.1	0.000106189
41.2	6.1489e-05
41.3	1.94874e-05
41.4	-2.13613e-05
41.5	-6.29292e-05
41.6	-0.00010703
41.7	-0.000155014
41.8	-0.00020172
41.9	-0.000238043
42	-0.000264467
42.1	-0.000284187
42.2	-0.000300888
42.3	-0.000319006
42.4	-0.00033667
42.5	-0.000349023
42.6	-0.000359354
42.7	-0.000366306
42.8	-0.000371264
42.9	-0.000372076
43	-0.000367801
43.1	-0.000360152
43.2	-0.000350101
43.3	-0.000338569
43.4	-0.00032544
43.5	-0.000307463
43.6	-0.000291881
43.7	-0.000278578
43.8	-0.000266737
43.9	-0.000255723
44	-0.000241402
44.1	-0.000220714
44.2	-0.00019806
44.3	-0.000170767
44.4	-0.000138012
44.5	-0.00010278
44.6	-7.07227e-05
44.7	-4.12948e-05
44.8	-1.56393e-05
44.9	9.52689e-06
45	3.04808e-05
45.1	5.059e-05
45.2	7.04488e-05
45.3	9.04725e-05
45.4	0.000108765
45.5	0.000126474
45.6	0.000141933
45.7	0.000153183
45.8	0.000162638
45.9	0.000172028
46	0.00017999
46.1	0.000187339
46.2	0.000195002
46.3	0.000199129
46.4	0.000204149
46.5	0.000212912
46.6	0.000227558
46.7	0.000243442
46.8	0.000259545
46.9	0.00027075
47	0.000281225
47.1	0.000292628
47.2	0.00030139
47.3	0.0003112
47.4	0.000322536
47.5	0.000331819
47.6	0.000342089
47.7	0.000350795
47.8	0.000357415
47.9	0.000356201
48	0.000353998
48.1	0.000352551
48.2	0.00035348
48.3	0.000358013
48.4	0.000361853
48.5	0.000364954
48.6	0.000364413
48.7	0.000363067
48.8	0.000367831
48.9	0.00038018
49	0.000399184
49.1	0.000421913
49.2	0.000442785
49.3	0.000459862
49.4	0.000473015
49.5	0.000484182
49.6	0.000490575
49.7	0.000493737
49.8	0.000494568
49.9	0.000496426
50	0.000496609
50.1	0.000498812
50.2	0.000505725
50.3	0.000515173
50.4	0.000522795
50.5	0.000525378
50.6	0.000527041
50.7	0.000530365
50.8	0.000537654
50.9	0.000547582
51	0.000562408
51.1	0.000575614
51.2	0.000587044
51.3	0.000597436
51.4	0.000611652
51.5	0.000627264
51.6	0.000643795
51.7	0.000657441
51.8	0.000670952
51.9	0.000686766
52	0.000706533
52.1	0.000724607
52.2	0.00074137
52.3	0.000753165
52.4	0.000758769
52.5	0.000763899
52.6	0.000772667
52.7	0.000782635
52.8	0.000793789
52.9	0.000801381
53	0.00080579
53.1	0.000814308
53.2	0.000826012
53.3	0.000841081
53.4	0.000855753
53.5	0.000872618
53.6	0.000886112
53.7	0.000900387
53.8	0.000914019
53.9	0.000927758
54	0.00094574
54.1	0.000959762
54.2	0.000975471
54.3	0.000990493
54.4	0.000997671
54.5	0.00100493
54.6	0.00101523
54.7	0.00102864
54.8	0.00104196
54.9	0.00104876
55	0.00105061
55.1	0.00104997
55.2	0.0010428
55.3	0.00104
55.4	0.00104173
55.5	0.0010448
55.6	0.0010509
55.7	0.00105804
55.8	0.00106221
55.9	0.00106395
56	0.00106237
56.1	0.00106633
56.2	0.00107103
56.3	0.00106986
56.4	0.00107249
56.5	0.00107744
56.6	0.00108438
56.7	0.00108443
56.8	0.00107973
56.9	0.00107862
57	0.00108216
57.1	0.00108757
57.2	0.00109083
57.3	0.00109316
57.4	0.00109951
57.5	0.00111081
57.6	0.0011211
57.7	0.00113131
57.8	0.0011391
57.9	0.00114598
58	0.00115339
58.1	0.00115935
58.2	0.00117035
58.3	0.00118797
58.4	0.00120593
58.5	0.00122069
58.6	0.00123481
58.7	0.00124693
58.8	0.00125556
58.9	0.00126183
59	0.00127168
59.1	0.00128958
59.2	0.00130763
59.3	0.0013204
59.4	0.00133075
59.5	0.00134346
59.6	0.00136324
59.7	0.00138202
59.8	0.00139868
59.9	0.00141538
60	0.00143762
60.1	0.00145963
60.2	0.00148211
60.3	0.00150759
60.4	0.00153282
60.5	0.00155966
60.6	0.00158625
60.7	0.00161013
60.8	0.0016346
60.9	0.00165963
61	0.00168194
61.1	0.00170082
61.2	0.00171804
61.3	0.00173363
61.4	0.00175124
61.5	0.00177033
61.6	0.00178607
61.7	0.00180045
61.8	0.00181522
61.9	0.00182569
62	0.00183436
62.1	0.00184125
62.2	0.00184794
62.3	0.00185258
62.4	0.00185742
62.5	0.00185581
62.6	0.00184855
62.7	0.0018384
62.8	0.00182763
62.9	0.00181745
63	0.0018043
63.1	0.00178802
63.2	0.00176722
63.3	0.00174273
63.4	0.00171391
63.5	0.00168534
63.6	0.00165949
63.7	0.00164291
63.8	0.00163447
63.9	0.0016288
64	0.00162552
64.1	0.00162211
64.2	0.00161476
64.3	0.00160551
64.4	0.00158867
64.5	0.00156893
64.6	0.00154852
64.7	0.00152797
64.8	0.00151108
64.9	0.0014964
65	0.00148017
65.1	0.00145891
65.2	0.00143456
65.3	0.00141384
65.4	0.00139907
65.5	0.00138661
65.6	0.00137177
65.7	0.00135237
65.8	0.00133167
65.9	0.001308
66	0.00128066
66.1	0.00125391
66.2	0.00123073
66.3	0.00120641
66.4	0.00117948
66.5	0.00115235
66.6	0.00112439
66.7	0.00109469
66.8	0.00106572
66.9	0.00103458
67	0.00100264
67.1	0.000969447
67.2	0.000937823
67.3	0.00090508
67.4	0.000869797
67.5	0.00083725
67.6	0.000807491
67.7	0.000777114
67.8	0.000750018
67.9	0.000728106
68	0.00070766
68.1	0.000692328
68.2	0.000678515
68.3	0.000664936
68.4	0.000650985
68.5	0.000641073
68.6	0.00063421
68.7	0.000626345
68.8	0.000619673
68.9	0.000609333
69	0.000594065
69.1	0.000577113
69.2	0.000569831
69.3	0.000564324
69.4	0.000556838
69.5	0.000556248
69.6	0.000560777
69.7	0.000565168
69.8	0.00057038
69.9	0.000573428
70	0.000573566
70.1	0.000573461
70.2	0.000575768
70.3	0.000581508
70.4	0.000588405
70.5	0.000591787
70.6	0.000592984
70.7	0.000592268
70.8	0.00058939
70.9	0.000583625
71	0.000574131
71.1	0.00056405
71.2	0.000552113
71.3	0.000535068
71.4	0.00051302
71.5	0.000488815
71.6	0.000465222
71.7	0.000448865
71.8	0.000436798
71.9	0.000421971
72	0.000404112
72.1	0.000384353
72.2	0.000362948
72.3	0.000338272
72.4	0.000312575
72.5	0.000289351
72.6	0.000267349
72.7	0.000246168
72.8	0.000225033
72.9	0.00020939
73	0.000200529
73.1	0.000199618
73.2	0.000202223
73.3	0.000208096
73.4	0.000217124
73.5	0.000226787
73.6	0.000236733
73.7	0.000246342
73.8	0.000261607
73.9	0.000281799
74	0.00030228
74.1	0.000323237
74.2	0.000342616
74.3	0.000360488
74.4	0.000376374
74.5	0.000386856
74.6	0.000397765
74.7	0.000411602
74.8	0.000421084
74.9	0.000427186
75	0.000439605
75.1	0.000453541
75.2	0.000467762
75.3	0.000477615
75.4	0.00048841
75.5	0.000502162
75.6	0.000516763
75.7	0.000528672
75.8	0.000539658
75.9	0.000553285
76	0.000564405
76.1	0.000576706
76.2	0.000591269
76.3	0.000603634
76.4	0.000617586
76.5	0.000630927
76.6	0.000642712
76.7	0.000657037
76.8	0.000671982
76.9	0.000687459
77	0.000705244
77.1	0.000725006
77.2	0.000744006
77.3	0.000758367
77.4	0.000767869
77.5	0.000772729
77.6	0.000772377
77.7	0.000768202
77.8	0.000762411
77.9	0.000753888
78	0.000742501
78.1	0.000724299
78.2	0.000701902
78.3	0.000678913
78.4	0.000657532
78.5	0.00063398
78.6	0.000610434
78.7	0.000587912
78.8	0.000564678
78.9	0.000547221
79	0.000533707
79.1	0.000522043
79.2	0.000515666
79.3	0.000518428
79.4	0.000529419
79.5	0.000543987
79.6	0.000555723
79.7	0.000565539
79.8	0.000567966
79.9	0.000565897
80	0.000562105
80.1	0.000560786
80.2	0.000563632
80.3	0.000569243
80.4	0.000575542
80.5	0.000583462
80.6	0.000590574
80.7	0.000593673
80.8	0.000590738
80.9	0.000585344
81	0.000582717
81.1	0.000579908
81.2	0.00057377
81.3	0.000565051
81.4	0.000553269
81.5	0.000534549
81.6	0.000508975
81.7	0.000475111
81.8	0.000438473
81.9	0.000404337
82	0.000376929
82.1	0.000350102
82.2	0.000322852
82.3	0.000293998
82.4	0.000267124
82.5	0.000238416
82.6	0.000206013
82.7	0.000175847
82.8	0.000146292
82.9	0.000115935
83	8.71482e-05
83.1	6.02105e-05
83.2	3.74164e-05
83.3	1.2105e-05
83.4	-1.89009e-05
83.5	-5.25397e-05
83.6	-8.5086e-05
83.7	-0.000116397
83.8	-0.000144017
83.9	-0.000166113
84	-0.000188197
84.1	-0.000207308
84.2	-0.000219778
84.3	-0.000232648
84.4	-0.000250058
84.5	-0.000270501
84.6	-0.000293355
84.7	-0.000316575
84.8	-0.00033804
84.9	-0.000356275
85	-0.000371692
85.1	-0.000385246
85.2	-0.000397087
85.3	-0.000406061
85.4	-0.000410658
85.5	-0.000414774
85.6	-0.000419959
85.7	-0.000423502
85.8	-0.00042962
85.9	-0.000437198
86	-0.000446371
86.1	-0.000457431
86.2	-0.000465765
86.3	-0.000475129
86.4	-0.000487727
86.5	-0.000499189
86.6	-0.000506354
86.7	-0.000516176
86.8	-0.000530739
86.9	-0.000547798
87	-0.000562184
87.1	-0.000574336
87.2	-0.000590145
87.3	-0.000603032
87.4	-0.000610489
87.5	-0.000617786
87.6	-0.000633818
87.7	-0.000652052
87.8	-0.000667084
87.9	-0.000682229
88	-0.000696941
88.1	-0.000715526
88.2	-0.000742023
88.3	-0.000768154
88.4	-0.000792588
88.5	-0.000815333
88.6	-0.000840531
88.7	-0.000866908
88.8	-0.000892989
88.9	-0.000918217
89	-0.000938336
89.1	-0.000953022
89.2	-0.000965983
89.3	-0.00097709
89.4	-0.000987103
89.5	-0.000997889
89.6	-0.00100979
89.7	-0.00102123
89.8	-0.00103153
89.9	-0.00104555
90	-0.00105482
90.1	-0.00105791
90.2	-0.00106074
90.3	-0.00106156
90.4	-0.00106188
90.5	-0.00106905
90.6	-0.00107773
90.7	-0.0010802
90.8	-0.00108032
90.9	-0.0010781
91	-0.00107599
91.1	-0.00106673
91.2	-0.00104689
91.3	-0.00101805
91.4	-0.000983554
91.5	-0.000942688
91.6	-0.000904001
91.7	-0.000868289
91.8	-0.000835189
91.9	-0.000802798
92	-0.000770271
92.1	-0.000739708
92.2	-0.00071257
92.3	-0.000689242
92.4	-0.000668071
92.5	-0.000651873
92.6	-0.000642422
92.7	-0.000637973
92.8	-0.000634466
92.9	-0.000623971
93	-0.000614692
93.1	-0.000604843
93.2	-0.000598143
93.3	-0.000594178
93.4	-0.000590995
93.5	-0.00059375
93.6	-0.000600788
93.7	-0.000610131
93.8	-0.000621544
93.9	-0.000633672
94	-0.000648451
94.1	-0.000660536
94.2	-0.000672773
94.3	-0.000684253
94.4	-0.000695107
94.5	-0.000704673
94.6	-0.000714238
94.7	-0.000722955
94.8	-0.000726631
94.9	-0.000728696
95	-0.000728432
95.1	-0.000730037
95.2	-0.000730327
95.3	-0.000729413
95.4	-0.000722024
95.5	-0.000712891
95.6	-0.000701983
95.7	-0.000690712
95.8	-0.000682399
95.9	-0.000677448
96	-0.000676458
96.1	-0.000674467
96.2	-0.000673694
96.3	-0.000672321
96.4	-0.000666609
96.5	-0.000661059
96.6	-0.000655975
96.7	-0.000654209
96.8	-0.000659108
96.9	-0.000668523
97	-0.00068014
97.1	-0.000692085
97.2	-0.000704441
97.3	-0.000721886
97.4	-0.000736611
97.5	-0.000747761
97.6	-0.000755995
97.7	-0.000757063
97.8	-0.000752119
97.9	-0.000738378
98	-0.00071542
98.1	-0.000686352
98.2	-0.00065646
98.3	-0.000625268
98.4	-0.000596557
98.5	-0.00057068
98.6	-0.000543007
98.7	-0.000514704
98.8	-0.000485973
98.9	-0.000452008
99	-0.000417736
99.1	-0.000383772
99.2	-0.000346228
99.3	-0.000309101
99.4	-0.000269829
99.5	-0.000231287
99.6	-0.000197082
99.7	-0.000163515
99.8	-0.000135229
99.9	-0.000110559
100	-8.84964e-05
100.1	-6.87718e-05
100.2	-5.24406e-05
100.3	-4.33865e-05
100.4	-3.79615e-05
100.5	-2.94077e-05
100.6	-2.14871e-05
100.7	-1.26992e-05
100.8	2.02036e-06
100.9	1.95669e-05
101	3.18876e-05
101.1	4.47309e-05
101.2	5.97222e-05
101.3	7.60237e-05
101.4	9.73348e-05
101.5	0.000124766
101.6	0.000145934
101.7	0.000163744
101.8	0.000183309
101.9	0.000198402
102	0.000212386
102.1	0.000226433
102.2	0.000241389
102.3	0.00026371
102.4	0.000288408
102.5	0.000317203
102.6	0.000348826
102.7	0.000375289
102.8	0.000401186
102.9	0.000424179
103	0.000448638
103.1	0.00047298
103.2	0.000499244
103.3	0.000525404
103.4	0.000548597
103.5	0.000571881
103.6	0.000592181
103.7	0.000614553
103.8	0.000638854
103.9	0.000668275
104	0.000698794
104.1	0.000729865
104.2	0.000766091
104.3	0.000801099
104.4	0.000835395
104.5	0.000869445
104.6	0.000903484
104.7	0.000939242
104.8	0.000975463
104.9	0.00101019
105	0.00104351
105.1	0.00107695
105.2	0.00110578
105.3	0.00113382
105.4	0.00116185
105.5	0.00119127
105.6	0.00122332
105.7	0.00125763
105.8	0.00129246
105.9	0.00132751
106	0.00136571
106.1	0.00140882
106.2	0.00145763
106.3	0.00150871
106.4	0.00155915
106.5	0.00160365
106.6	0.00164606
106.7	0.00168202
106.8	0.0017114
106.9	0.00174142
107	0.00177692
107.1	0.0018121
107.2	0.00184743
107.3	0.00187841
107.4	0.00190558
107.5	0.00193039
107.6	0.00195118
107.7	0.00196831
107.8	0.00197255
107.9	0.00197305
108	0.00197308
108.1	0.00197501
108.2	0.00197611
108.3	0.00197703
108.4	0.00198246
108.5	0.00198809
108.6	0.00199317
108.7	0.00199815
108.8	0.00200113
108.9	0.00200294
109	0.00200385
109.1	0.00200466
109.2	0.00200368
109.3	0.00200197
109.4	0.00200415
109.5	0.0020074
109.6	0.00200913
109.7	0.00200855
109.8	0.00200417
109.9	0.00200062
110	0.00199617
110.1	0.00199053
110.2	0.00198965
110.3	0.0019892
110.4	0.00198803
110.5	0.00198741
110.6	0.00198843
110.7	0.00199021
110.8	0.00199224
110.9	0.00198665
111	0.00197491
111.1	0.00195779
111.2	0.00193511
111.3	0.00191227
111.4	0.0018915
111.5	0.0018682
111.6	0.00183982
111.7	0.00180365
111.8	0.00177152
111.9	0.00174221
112	0.0017134
112.1	0.00168569
112.2	0.00165396
112.3	0.00162341
112.4	0.00159291
112.5	0.00156392
112.6	0.00153625
112.7	0.00151164
112.8	0.00148964
112.9	0.0014677
113	0.00144071
113.1	0.0014088
113.2	0.00136719
113.3	0.00132333
113.4	0.00128511
113.5	0.00124909
113.6	0.00121529
113.7	0.00118501
113.8	0.00115983
113.9	0.00113668
114	0.00111326
114.1	0.00109151
114.2	0.00106913
114.3	0.00104747
114.4	0.00102255
114.5	0.00099261
114.6	0.000962273
114.7	0.000934917
114.8	0.000914364
114.9	0.000896933
115	0.000882479
115.1	0.000867835
115.2	0.000850236
115.3	0.00083262
115.4	0.000819366
115.5	0.000812878
115.6	0.000813309
115.7	0.000817446
115.8	0.000820841
115.9	0.000824171
116	0.000827956
116.1	0.000829896
116.2	0.000828997
116.3	0.000831837
116.4	0.000831821
116.5	0.000830313
116.6	0.000826971
116.7	0.000823536
116.8	0.000819692
116.9	0.000815587
117	0.000813711
117.1	0.000814037
117.2	0.000816618
117.3	0.000819952
117.4	0.000824164
117.5	0.000825933
117.6	0.000826692
117.7	0.000821898
117.8	0.000815817
117.9	0.000802867
118	0.000786849
118.1	0.000769158
118.2	0.000753299
118.3	0.000740151
118.4	0.000735691
118.5	0.000738777
118.6	0.000754578
118.7	0.000777213
118.8	0.000802276
118.9	0.000830524
119	0.000855882
119.1	0.00087769
119.2	0.000896344
119.3	0.000909734
119.4	0.000923551
119.5	0.000933147
119.6	0.000940084
119.7	0.000947236
119.8	0.000958732
119.9	0.000972431
120	0.000988308
120.1	0.00100228
120.2	0.00101709
120.3	0.00103092
120.4	0.00104484
120.5	0.00105696
120.6	0.00106994
120.7	0.00108483
120.8	0.00110101
120.9	0.00111957
121	0.00113701
121.1	0.00115351
121.2	0.00117023
121.3	0.00118686
121.4	0.00120408
121.5	0.00122105
121.6	0.00123883
121.7	0.00125443
121.8	0.00127174
121.9	0.00129203
122	0.00130613
122.1	0.00131391
122.2	0.00131466
122.3	0.00131504
122.4	0.00131388
122.5	0.00130858
122.6	0.00130168
122.7	0.00129348
122.8	0.00128833
122.9	0.00128399
123	0.00128072
123.1	0.00127145
123.2	0.00125735
123.3	0.001243
123.4	0.00122746
123.5	0.00121561
123.6	0.00120927
123.7	0.00120609
123.8	0.00120505
123.9	0.00120433
124	0.00120648
124.1	0.00121081
124.2	0.00121101
124.3	0.00120781
