LagTime	Correlation

0	2.23513
0.1	2.23012
0.2	2.22263
0.3	2.21457
0.4	2.2064
0.5	2.19825
0.6	2.19015
0.7	2.18212
0.8	2.17415
0.9	2.16623
1	2.15837
1.1	2.15057
1.2	2.14282
1.3	2.13514
1.4	2.12751
1.5	2.11994
1.6	2.11244
1.7	2.10499
1.8	2.0976
1.9	2.09026
2	2.08299
2.1	2.07578
2.2	2.06862
2.3	2.06151
2.4	2.05444
2.5	2.04742
2.6	2.04045
2.7	2.03353
2.8	2.02666
2.9	2.01983
3	2.01305
3.1	2.00632
3.2	1.99962
3.3	1.99297
3.4	1.98636
3.5	1.97978
3.6	1.97325
3.7	1.96677
3.8	1.96032
3.9	1.95391
4	1.94754
4.1	1.94121
4.2	1.93492
4.3	1.92867
4.4	1.92245
4.5	1.91627
4.6	1.91013
4.7	1.90402
4.8	1.89794
4.9	1.8919
5	1.8859
5.1	1.87993
5.2	1.874
5.3	1.8681
5.4	1.86225
5.5	1.85643
5.6	1.85065
5.7	1.84491
5.8	1.8392
5.9	1.83353
6	1.82789
6.1	1.82228
6.2	1.8167
6.3	1.81116
6.4	1.80565
6.5	1.80018
6.6	1.79474
6.7	1.78933
6.8	1.78395
6.9	1.7786
7	1.77327
7.1	1.76798
7.2	1.76272
7.3	1.75749
7.4	1.75229
7.5	1.74713
7.6	1.74201
7.7	1.73691
7.8	1.73184
7.9	1.7268
8	1.72179
8.1	1.7168
8.2	1.71184
8.3	1.70691
8.4	1.70201
8.5	1.69713
8.6	1.69229
8.7	1.68746
8.8	1.68266
8.9	1.67788
9	1.67312
9.1	1.66839
9.2	1.66368
9.3	1.65898
9.4	1.6543
9.5	1.64964
9.6	1.645
9.7	1.64037
9.8	1.63576
9.9	1.63118
10	1.62662
10.1	1.62209
10.2	1.61758
10.3	1.6131
10.4	1.60864
10.5	1.6042
10.6	1.59979
10.7	1.5954
10.8	1.59103
10.9	1.58668
11	1.58235
11.1	1.57805
11.2	1.57376
11.3	1.5695
11.4	1.56526
11.5	1.56104
11.6	1.55684
11.7	1.55267
11.8	1.54851
11.9	1.54437
12	1.54025
12.1	1.53615
12.2	1.53206
12.3	1.52799
12.4	1.52393
12.5	1.5199
12.6	1.51589
12.7	1.5119
12.8	1.50792
12.9	1.50397
13	1.50002
13.1	1.4961
13.2	1.49219
13.3	1.4883
13.4	1.48442
13.5	1.48056
13.6	1.47672
13.7	1.47289
13.8	1.46907
13.9	1.46527
14	1.46147
14.1	1.4577
14.2	1.45394
14.3	1.4502
14.4	1.44648
14.5	1.44277
14.6	1.43909
14.7	1.43542
14.8	1.43176
14.9	1.42813
15	1.42452
15.1	1.42091
15.2	1.41733
15.3	1.41377
15.4	1.41021
15.5	1.40667
15.6	1.40314
15.7	1.39963
15.8	1.39613
15.9	1.39265
16	1.38918
16.1	1.38573
16.2	1.38229
16.3	1.37887
16.4	1.37548
16.5	1.37209
16.6	1.36872
16.7	1.36536
16.8	1.36201
16.9	1.35867
17	1.35534
17.1	1.35203
17.2	1.34873
17.3	1.34545
17.4	1.34218
17.5	1.33892
17.6	1.33568
17.7	1.33245
17.8	1.32923
17.9	1.32602
18	1.32283
18.1	1.31964
18.2	1.31646
18.3	1.31328
18.4	1.31012
18.5	1.30697
18.6	1.30383
18.7	1.30069
18.8	1.29757
18.9	1.29446
19	1.29135
19.1	1.28825
19.2	1.28517
19.3	1.28209
19.4	1.27902
19.5	1.27596
19.6	1.27291
19.7	1.26987
19.8	1.26684
19.9	1.26382
20	1.2608
20.1	1.2578
20.2	1.25481
20.3	1.25183
20.4	1.24886
20.5	1.24591
20.6	1.24296
20.7	1.24003
20.8	1.2371
20.9	1.23419
21	1.2313
21.1	1.22841
21.2	1.22553
21.3	1.22265
21.4	1.21979
21.5	1.21693
21.6	1.21409
21.7	1.21125
21.8	1.20842
21.9	1.20559
22	1.20277
22.1	1.19996
22.2	1.19716
22.3	1.19436
22.4	1.19158
22.5	1.18881
22.6	1.18604
22.7	1.18328
22.8	1.18054
22.9	1.1778
23	1.17507
23.1	1.17236
23.2	1.16965
23.3	1.16695
23.4	1.16425
23.5	1.16156
23.6	1.15888
23.7	1.15621
23.8	1.15355
23.9	1.1509
24	1.14826
24.1	1.14563
24.2	1.14301
24.3	1.1404
24.4	1.13778
24.5	1.13517
24.6	1.13257
24.7	1.12997
24.8	1.12739
24.9	1.12481
25	1.12224
25.1	1.11968
25.2	1.11713
25.3	1.11459
25.4	1.11206
25.5	1.10954
25.6	1.10702
25.7	1.10451
25.8	1.102
25.9	1.09949
26	1.09699
26.1	1.0945
26.2	1.09201
26.3	1.08953
26.4	1.08705
26.5	1.08459
26.6	1.08214
26.7	1.0797
26.8	1.07727
26.9	1.07484
27	1.07243
27.1	1.07002
27.2	1.06763
27.3	1.06524
27.4	1.06285
27.5	1.06048
27.6	1.05811
27.7	1.05574
27.8	1.05338
27.9	1.05102
28	1.04867
28.1	1.04632
28.2	1.04398
28.3	1.04165
28.4	1.03933
28.5	1.037
28.6	1.03467
28.7	1.03236
28.8	1.03005
28.9	1.02774
29	1.02545
29.1	1.02318
29.2	1.0209
29.3	1.01864
29.4	1.01638
29.5	1.01412
29.6	1.01187
29.7	1.00962
29.8	1.00738
29.9	1.00514
30	1.00291
30.1	1.00067
30.2	0.998444
30.3	0.996221
30.4	0.994004
30.5	0.991792
30.6	0.989586
30.7	0.987383
30.8	0.985189
30.9	0.983004
31	0.980829
31.1	0.978658
31.2	0.976491
31.3	0.974328
31.4	0.972168
31.5	0.970011
31.6	0.967858
31.7	0.965709
31.8	0.963568
31.9	0.961438
32	0.959317
32.1	0.957207
32.2	0.955102
32.3	0.953001
32.4	0.950904
32.5	0.948809
32.6	0.946725
32.7	0.944649
32.8	0.942584
32.9	0.940525
33	0.938479
33.1	0.936434
33.2	0.93439
33.3	0.932349
33.4	0.930315
33.5	0.928291
33.6	0.926278
33.7	0.92427
33.8	0.922265
33.9	0.920262
34	0.918261
34.1	0.916265
34.2	0.914271
34.3	0.912279
34.4	0.910293
34.5	0.908311
34.6	0.906339
34.7	0.904377
34.8	0.902422
34.9	0.900474
35	0.898527
35.1	0.896582
35.2	0.894637
35.3	0.892687
35.4	0.890739
35.5	0.888796
35.6	0.886865
35.7	0.884939
35.8	0.88302
35.9	0.881112
36	0.879212
36.1	0.877317
36.2	0.87543
36.3	0.87355
36.4	0.871674
36.5	0.869803
36.6	0.867938
36.7	0.866077
36.8	0.864221
36.9	0.862371
37	0.860529
37.1	0.85869
37.2	0.856855
37.3	0.855023
37.4	0.853196
37.5	0.851375
37.6	0.84956
37.7	0.847747
37.8	0.845938
37.9	0.844134
38	0.84234
38.1	0.840552
38.2	0.838768
38.3	0.836986
38.4	0.835209
38.5	0.833433
38.6	0.831656
38.7	0.82988
38.8	0.828102
38.9	0.826323
39	0.824541
39.1	0.822763
39.2	0.820985
39.3	0.819212
39.4	0.817446
39.5	0.815684
39.6	0.813924
39.7	0.812163
39.8	0.810404
39.9	0.808649
40	0.806901
40.1	0.805162
40.2	0.803421
40.3	0.801682
40.4	0.799947
40.5	0.798215
40.6	0.796489
40.7	0.794757
40.8	0.793026
40.9	0.791298
41	0.789576
41.1	0.787854
41.2	0.786137
41.3	0.784425
41.4	0.782714
41.5	0.781014
41.6	0.779326
41.7	0.777654
41.8	0.775995
41.9	0.774349
42	0.77271
42.1	0.771072
42.2	0.769431
42.3	0.767791
42.4	0.76616
42.5	0.764538
42.6	0.762922
42.7	0.761313
42.8	0.759711
42.9	0.75812
43	0.756536
43.1	0.754956
43.2	0.753378
43.3	0.751799
43.4	0.750223
43.5	0.748652
43.6	0.747086
43.7	0.745521
43.8	0.743953
43.9	0.742383
44	0.740815
44.1	0.739251
44.2	0.737689
44.3	0.736125
44.4	0.734557
44.5	0.732996
44.6	0.731433
44.7	0.729874
44.8	0.728316
44.9	0.726758
45	0.725201
45.1	0.723647
45.2	0.722093
45.3	0.720537
45.4	0.718984
45.5	0.717434
45.6	0.71588
45.7	0.714326
45.8	0.712774
45.9	0.711221
46	0.709665
46.1	0.708111
46.2	0.706559
46.3	0.705011
46.4	0.703468
46.5	0.701932
46.6	0.700399
46.7	0.698864
46.8	0.697331
46.9	0.695802
47	0.694278
47.1	0.692758
47.2	0.691242
47.3	0.689729
47.4	0.688215
47.5	0.686704
47.6	0.685195
47.7	0.683687
47.8	0.682182
47.9	0.680682
48	0.679185
48.1	0.677696
48.2	0.676215
48.3	0.674737
48.4	0.673264
48.5	0.671794
48.6	0.670331
48.7	0.668874
48.8	0.667419
48.9	0.665963
49	0.66451
49.1	0.663061
49.2	0.661618
49.3	0.660183
49.4	0.658752
49.5	0.657326
49.6	0.655906
49.7	0.654493
49.8	0.653085
49.9	0.651685
50	0.650289
50.1	0.648894
50.2	0.647504
50.3	0.646115
50.4	0.644726
50.5	0.643338
50.6	0.641957
50.7	0.64058
50.8	0.639215
50.9	0.637858
51	0.636505
51.1	0.635158
51.2	0.63382
51.3	0.632489
51.4	0.631166
51.5	0.629846
51.6	0.628532
51.7	0.627222
51.8	0.625914
51.9	0.624613
52	0.623318
52.1	0.622024
52.2	0.620732
52.3	0.61944
52.4	0.61815
52.5	0.616861
52.6	0.61558
52.7	0.614306
52.8	0.61304
52.9	0.611778
53	0.610521
53.1	0.609267
53.2	0.608015
53.3	0.60676
53.4	0.605506
53.5	0.604255
53.6	0.603007
53.7	0.601759
53.8	0.600515
53.9	0.599273
54	0.59803
54.1	0.59679
54.2	0.595554
54.3	0.594327
54.4	0.593107
54.5	0.591887
54.6	0.590669
54.7	0.589452
54.8	0.588238
54.9	0.587024
55	0.585809
55.1	0.584591
55.2	0.583373
55.3	0.582156
55.4	0.58094
55.5	0.57973
55.6	0.578521
55.7	0.577309
55.8	0.576096
55.9	0.57488
56	0.573664
56.1	0.572447
56.2	0.571232
56.3	0.570026
56.4	0.56883
56.5	0.567639
56.6	0.566454
56.7	0.565272
56.8	0.564092
56.9	0.562912
57	0.561729
57.1	0.560548
57.2	0.559369
57.3	0.558189
57.4	0.557012
57.5	0.555841
57.6	0.554677
57.7	0.553512
57.8	0.552352
57.9	0.551196
58	0.550043
58.1	0.54889
58.2	0.547737
58.3	0.546586
58.4	0.54544
58.5	0.544293
58.6	0.543147
58.7	0.542
58.8	0.540857
58.9	0.539719
59	0.538588
59.1	0.537459
59.2	0.536334
59.3	0.535211
59.4	0.534087
59.5	0.532966
59.6	0.531848
59.7	0.530737
59.8	0.529628
59.9	0.528523
60	0.527426
60.1	0.526337
60.2	0.525251
60.3	0.524167
60.4	0.523084
60.5	0.522006
60.6	0.52093
60.7	0.519856
60.8	0.51879
60.9	0.517728
61	0.516671
61.1	0.515624
61.2	0.514586
61.3	0.513555
61.4	0.51253
61.5	0.511508
61.6	0.510483
61.7	0.509457
61.8	0.508435
61.9	0.507415
62	0.506397
62.1	0.50538
62.2	0.504366
62.3	0.503355
62.4	0.502348
62.5	0.50134
62.6	0.50033
62.7	0.499319
62.8	0.498307
62.9	0.497291
63	0.496272
63.1	0.495252
63.2	0.494237
63.3	0.493224
63.4	0.49221
63.5	0.491195
63.6	0.490184
63.7	0.489176
63.8	0.488171
63.9	0.487165
64	0.486162
64.1	0.485164
64.2	0.484169
64.3	0.483175
64.4	0.482181
64.5	0.481185
64.6	0.480193
64.7	0.479209
64.8	0.478231
64.9	0.47725
65	0.476269
65.1	0.475284
65.2	0.474296
65.3	0.473313
65.4	0.472331
65.5	0.471353
65.6	0.47038
65.7	0.469413
65.8	0.468448
65.9	0.467489
66	0.466536
66.1	0.465584
66.2	0.464629
66.3	0.463671
66.4	0.462714
66.5	0.461756
66.6	0.460796
66.7	0.459842
66.8	0.458891
66.9	0.457944
67	0.456997
67.1	0.456048
67.2	0.455098
67.3	0.454149
67.4	0.453202
67.5	0.452257
67.6	0.451312
67.7	0.450371
67.8	0.449433
67.9	0.448497
68	0.447562
68.1	0.446623
68.2	0.445682
68.3	0.444742
68.4	0.443806
68.5	0.442874
68.6	0.441943
68.7	0.441013
68.8	0.440085
68.9	0.439165
69	0.438245
69.1	0.437328
69.2	0.436415
69.3	0.435512
69.4	0.434615
69.5	0.433724
69.6	0.432844
69.7	0.431967
69.8	0.431093
69.9	0.430222
70	0.429355
70.1	0.428493
70.2	0.427637
70.3	0.426784
70.4	0.425934
70.5	0.425089
70.6	0.42425
70.7	0.423415
70.8	0.422584
70.9	0.421754
71	0.420928
71.1	0.420103
71.2	0.41928
71.3	0.418458
71.4	0.417641
71.5	0.416824
71.6	0.416013
71.7	0.415203
71.8	0.414394
71.9	0.413591
72	0.412792
72.1	0.411996
72.2	0.411207
72.3	0.410415
72.4	0.409619
72.5	0.408818
72.6	0.408014
72.7	0.407208
72.8	0.406407
72.9	0.405607
73	0.404804
73.1	0.403998
73.2	0.403194
73.3	0.402388
73.4	0.401586
73.5	0.40078
73.6	0.399977
73.7	0.399171
73.8	0.398367
73.9	0.397571
74	0.39678
74.1	0.395994
74.2	0.395214
74.3	0.394436
74.4	0.393664
74.5	0.392894
74.6	0.392123
74.7	0.391353
74.8	0.390584
74.9	0.389819
75	0.389056
75.1	0.388294
75.2	0.387539
75.3	0.386785
75.4	0.386031
75.5	0.385277
75.6	0.384521
75.7	0.383762
75.8	0.383
75.9	0.382232
76	0.381462
76.1	0.380697
76.2	0.379933
76.3	0.379166
76.4	0.378399
76.5	0.377631
76.6	0.376864
76.7	0.376097
76.8	0.375334
76.9	0.374572
77	0.373808
77.1	0.373046
77.2	0.372288
77.3	0.371533
77.4	0.370786
77.5	0.370036
77.6	0.369286
77.7	0.368533
77.8	0.367783
77.9	0.36703
78	0.366274
78.1	0.365516
78.2	0.36476
78.3	0.364002
78.4	0.363244
78.5	0.362487
78.6	0.361729
78.7	0.360974
78.8	0.360223
78.9	0.359476
79	0.358734
79.1	0.357993
79.2	0.357248
79.3	0.356507
79.4	0.355772
79.5	0.355042
79.6	0.354311
79.7	0.353575
79.8	0.352841
79.9	0.352113
80	0.351381
80.1	0.350649
80.2	0.349917
80.3	0.349181
80.4	0.348449
80.5	0.347717
80.6	0.346987
80.7	0.346261
80.8	0.34554
80.9	0.344825
81	0.344118
81.1	0.343409
81.2	0.342708
81.3	0.342013
81.4	0.34132
81.5	0.340628
81.6	0.339941
81.7	0.339255
81.8	0.33857
81.9	0.33788
82	0.337184
82.1	0.336491
82.2	0.335797
82.3	0.3351
82.4	0.334402
82.5	0.333703
82.6	0.333005
82.7	0.332303
82.8	0.331598
82.9	0.330894
83	0.330189
83.1	0.329485
83.2	0.328782
83.3	0.328079
83.4	0.32738
83.5	0.326687
83.6	0.325998
83.7	0.325311
83.8	0.324626
83.9	0.323947
84	0.323272
84.1	0.322601
84.2	0.321932
84.3	0.321262
84.4	0.320595
84.5	0.319926
84.6	0.319254
84.7	0.318586
84.8	0.317923
84.9	0.317262
85	0.316605
85.1	0.315949
85.2	0.315301
85.3	0.314658
85.4	0.314015
85.5	0.313372
85.6	0.312729
85.7	0.312082
85.8	0.311435
85.9	0.310791
86	0.310154
86.1	0.309521
86.2	0.308885
86.3	0.308248
86.4	0.30761
86.5	0.306967
86.6	0.306322
86.7	0.305674
86.8	0.305023
86.9	0.304368
87	0.303716
87.1	0.30306
87.2	0.3024
87.3	0.30174
87.4	0.301081
87.5	0.300425
87.6	0.299772
87.7	0.29912
87.8	0.298464
87.9	0.297811
88	0.297161
88.1	0.296514
88.2	0.295869
88.3	0.295235
88.4	0.294606
88.5	0.293979
88.6	0.293352
88.7	0.292731
88.8	0.292118
88.9	0.291507
89	0.290902
89.1	0.290299
89.2	0.289695
89.3	0.289087
89.4	0.288473
89.5	0.287858
89.6	0.287242
89.7	0.286619
89.8	0.285994
89.9	0.285373
90	0.284759
90.1	0.284147
90.2	0.283532
90.3	0.282914
90.4	0.282292
90.5	0.281668
90.6	0.281043
90.7	0.28042
90.8	0.279795
90.9	0.279168
91	0.278541
91.1	0.277921
91.2	0.277302
91.3	0.27668
91.4	0.276057
91.5	0.27543
91.6	0.274798
91.7	0.274168
91.8	0.273541
91.9	0.272917
92	0.272293
92.1	0.271673
92.2	0.271048
92.3	0.270427
92.4	0.26981
92.5	0.269198
92.6	0.268586
92.7	0.267973
92.8	0.267358
92.9	0.266745
93	0.266135
93.1	0.265529
93.2	0.264933
93.3	0.264344
93.4	0.263756
93.5	0.263167
93.6	0.262578
93.7	0.261992
93.8	0.261412
93.9	0.260838
94	0.26027
94.1	0.259707
94.2	0.25914
94.3	0.258574
94.4	0.25801
94.5	0.257446
94.6	0.25688
94.7	0.256312
94.8	0.255743
94.9	0.255171
95	0.254599
95.1	0.254028
95.2	0.253459
95.3	0.25289
95.4	0.252323
95.5	0.251759
95.6	0.251201
95.7	0.250646
95.8	0.250094
95.9	0.249549
96	0.24901
96.1	0.248476
96.2	0.247956
96.3	0.247443
96.4	0.246929
96.5	0.246413
96.6	0.2459
96.7	0.245385
96.8	0.244874
96.9	0.244367
97	0.243863
97.1	0.243359
97.2	0.242859
97.3	0.242359
97.4	0.241862
97.5	0.241363
97.6	0.240869
97.7	0.240378
97.8	0.239891
97.9	0.239406
98	0.238917
98.1	0.238428
98.2	0.23794
98.3	0.237455
98.4	0.236975
98.5	0.236499
98.6	0.236025
98.7	0.235551
98.8	0.235072
98.9	0.23459
99	0.23411
99.1	0.233627
99.2	0.233141
99.3	0.232654
99.4	0.232172
99.5	0.231699
99.6	0.231233
99.7	0.230769
99.8	0.230303
99.9	0.229832
100	0.229366
100.1	0.228898
100.2	0.228432
100.3	0.227966
100.4	0.227498
100.5	0.227031
100.6	0.226562
100.7	0.226094
100.8	0.225626
100.9	0.22516
101	0.224697
101.1	0.224235
101.2	0.223771
101.3	0.223304
101.4	0.222837
101.5	0.22237
101.6	0.221909
101.7	0.221453
101.8	0.220998
101.9	0.220547
102	0.220097
102.1	0.219642
102.2	0.219179
102.3	0.218715
102.4	0.218254
102.5	0.217795
102.6	0.21734
102.7	0.216893
102.8	0.216446
102.9	0.216005
103	0.215567
103.1	0.215131
103.2	0.214701
103.3	0.21427
103.4	0.213837
103.5	0.2134
103.6	0.212965
103.7	0.212531
103.8	0.212094
103.9	0.211659
104	0.211225
104.1	0.210796
104.2	0.210374
104.3	0.209956
104.4	0.209541
104.5	0.209126
104.6	0.208709
104.7	0.208291
104.8	0.207868
104.9	0.207452
105	0.207037
105.1	0.206624
105.2	0.206208
105.3	0.205793
105.4	0.205376
105.5	0.204958
105.6	0.204535
105.7	0.204114
105.8	0.203693
105.9	0.203268
106	0.202849
106.1	0.20243
106.2	0.202012
106.3	0.201595
106.4	0.201184
106.5	0.200778
106.6	0.200368
106.7	0.19995
106.8	0.199531
106.9	0.199109
107	0.198688
107.1	0.198267
107.2	0.197849
107.3	0.197429
107.4	0.197007
107.5	0.196578
107.6	0.19615
107.7	0.195725
107.8	0.195303
107.9	0.19488
108	0.194461
108.1	0.194051
108.2	0.193641
108.3	0.193229
108.4	0.192817
108.5	0.192406
108.6	0.191998
108.7	0.191592
108.8	0.191196
108.9	0.190804
109	0.190414
109.1	0.190028
109.2	0.189648
109.3	0.189272
109.4	0.188903
109.5	0.188536
109.6	0.188168
109.7	0.187803
109.8	0.187439
109.9	0.18708
110	0.186725
110.1	0.186373
110.2	0.186026
110.3	0.185681
110.4	0.185335
110.5	0.184986
110.6	0.184636
110.7	0.184294
110.8	0.183954
110.9	0.183619
111	0.183289
111.1	0.182958
111.2	0.182626
111.3	0.18229
111.4	0.181958
111.5	0.181623
111.6	0.181286
111.7	0.180943
111.8	0.180596
111.9	0.180248
112	0.179898
112.1	0.17954
112.2	0.179175
112.3	0.17881
112.4	0.178443
112.5	0.17808
112.6	0.177714
112.7	0.177346
112.8	0.176984
112.9	0.176625
113	0.176267
113.1	0.17591
113.2	0.175561
113.3	0.175218
113.4	0.174877
113.5	0.174535
113.6	0.174193
113.7	0.173855
113.8	0.173522
113.9	0.173198
114	0.172881
114.1	0.172567
114.2	0.172255
114.3	0.171948
114.4	0.171644
114.5	0.171335
114.6	0.171025
114.7	0.170714
114.8	0.170398
114.9	0.170076
115	0.169756
115.1	0.169437
115.2	0.169123
115.3	0.168808
115.4	0.168494
115.5	0.168182
115.6	0.167871
115.7	0.167562
115.8	0.167252
115.9	0.166943
116	0.166632
116.1	0.16632
116.2	0.166006
116.3	0.165693
116.4	0.165383
116.5	0.165078
116.6	0.164777
116.7	0.164479
116.8	0.164185
116.9	0.163895
117	0.163607
117.1	0.163319
117.2	0.163035
117.3	0.162749
117.4	0.162461
117.5	0.162175
117.6	0.161887
117.7	0.161605
117.8	0.161323
117.9	0.16104
118	0.160757
118.1	0.160478
118.2	0.160199
118.3	0.159921
118.4	0.159643
118.5	0.159366
118.6	0.159087
118.7	0.158807
118.8	0.158527
118.9	0.158242
119	0.157953
119.1	0.157664
119.2	0.157375
119.3	0.157088
119.4	0.156805
119.5	0.156523
119.6	0.156239
119.7	0.155957
119.8	0.155674
119.9	0.155395
120	0.155117
120.1	0.154836
120.2	0.154553
120.3	0.15427
120.4	0.15398
120.5	0.153689
120.6	0.153396
120.7	0.153109
120.8	0.152827
120.9	0.152548
121	0.152272
121.1	0.152001
121.2	0.151729
121.3	0.151453
121.4	0.151179
121.5	0.150902
121.6	0.150624
121.7	0.15034
121.8	0.150054
121.9	0.149768
122	0.149481
122.1	0.149201
122.2	0.148921
122.3	0.148636
122.4	0.148344
122.5	0.148042
122.6	0.147738
122.7	0.147437
122.8	0.147137
122.9	0.146836
123	0.146536
123.1	0.146233
123.2	0.145927
123.3	0.145619
123.4	0.14531
123.5	0.144997
123.6	0.144682
123.7	0.144373
123.8	0.144069
123.9	0.143762
124	0.143453
124.1	0.143139
124.2	0.142824
124.3	0.142513
124.4	0.1422
124.5	0.141887
124.6	0.141571
124.7	0.14125
124.8	0.140926
124.9	0.140608
125	0.140289
125.1	0.13997
125.2	0.139653
125.3	0.139333
125.4	0.139013
125.5	0.138698
125.6	0.138386
125.7	0.13807
125.8	0.137751
125.9	0.137434
126	0.137116
126.1	0.136806
126.2	0.136499
126.3	0.136194
126.4	0.135888
126.5	0.135578
126.6	0.135272
126.7	0.134966
126.8	0.134657
126.9	0.134343
127	0.134029
127.1	0.13372
127.2	0.133413
127.3	0.133109
127.4	0.132807
127.5	0.132508
127.6	0.132209
127.7	0.13191
127.8	0.131613
127.9	0.131313
128	0.131013
128.1	0.130719
128.2	0.130428
128.3	0.130142
128.4	0.129857
128.5	0.129572
128.6	0.129285
128.7	0.128998
128.8	0.128709
128.9	0.128422
129	0.128137
129.1	0.127858
129.2	0.127585
129.3	0.127316
129.4	0.127052
129.5	0.126787
129.6	0.126519
129.7	0.126249
129.8	0.125983
129.9	0.12572
130	0.125455
130.1	0.125187
130.2	0.124916
130.3	0.124636
130.4	0.124352
130.5	0.124069
130.6	0.123789
130.7	0.123508
130.8	0.123223
130.9	0.12294
131	0.122656
131.1	0.122379
131.2	0.122108
131.3	0.121841
131.4	0.121572
131.5	0.121301
131.6	0.121027
131.7	0.120751
131.8	0.120477
131.9	0.120206
132	0.119935
132.1	0.119666
132.2	0.119397
132.3	0.119127
132.4	0.118851
132.5	0.11857
132.6	0.118284
132.7	0.117996
132.8	0.117709
132.9	0.117421
133	0.117131
133.1	0.116837
133.2	0.116541
133.3	0.116242
133.4	0.115938
133.5	0.115634
133.6	0.115329
133.7	0.115017
133.8	0.1147
133.9	0.114388
134	0.114079
134.1	0.11377
134.2	0.113463
134.3	0.113165
134.4	0.112875
134.5	0.112587
134.6	0.112299
134.7	0.112013
134.8	0.11173
134.9	0.111451
135	0.111176
135.1	0.110903
135.2	0.110629
135.3	0.110352
135.4	0.110078
135.5	0.109806
135.6	0.109542
135.7	0.109278
135.8	0.109009
135.9	0.108741
136	0.108475
136.1	0.108212
136.2	0.107949
136.3	0.107684
136.4	0.107421
136.5	0.107155
136.6	0.106891
136.7	0.106633
136.8	0.10638
136.9	0.106134
137	0.105891
137.1	0.105649
137.2	0.10541
137.3	0.105172
137.4	0.10493
137.5	0.104684
137.6	0.104437
137.7	0.104189
137.8	0.10394
137.9	0.103694
138	0.103446
138.1	0.103192
138.2	0.102937
138.3	0.102688
138.4	0.102443
138.5	0.102199
138.6	0.101952
138.7	0.101699
138.8	0.101446
138.9	0.101197
139	0.100949
139.1	0.100698
139.2	0.100439
139.3	0.100177
139.4	0.0999143
139.5	0.0996579
139.6	0.0994043
139.7	0.099152
139.8	0.0989008
139.9	0.0986548
140	0.0984141
140.1	0.0981788
140.2	0.0979463
140.3	0.0977139
140.4	0.0974822
140.5	0.0972489
140.6	0.0970186
140.7	0.0967897
140.8	0.0965635
140.9	0.0963375
141	0.0961123
141.1	0.0958872
141.2	0.0956616
141.3	0.0954407
141.4	0.0952231
141.5	0.0950122
141.6	0.0948023
141.7	0.0945905
141.8	0.0943769
141.9	0.0941587
142	0.0939403
142.1	0.0937232
142.2	0.0935083
142.3	0.0932943
142.4	0.0930835
142.5	0.0928745
142.6	0.0926639
142.7	0.0924542
142.8	0.0922469
142.9	0.0920363
143	0.0918208
143.1	0.091604
143.2	0.0913884
143.3	0.091172
143.4	0.090961
143.5	0.0907506
143.6	0.0905397
143.7	0.0903291
143.8	0.0901192
143.9	0.0899088
144	0.0896984
144.1	0.0894884
144.2	0.089279
144.3	0.0890725
144.4	0.0888658
144.5	0.0886542
144.6	0.0884419
144.7	0.0882303
144.8	0.0880174
144.9	0.0878063
145	0.087598
