LagTime	Correlation

0	0.668712
0.1	0.663688
0.2	0.656196
0.3	0.648159
0.4	0.640064
0.5	0.63203
0.6	0.624084
0.7	0.616238
0.8	0.608492
0.9	0.600841
1	0.593285
1.1	0.585823
1.2	0.57845
1.3	0.571167
1.4	0.56397
1.5	0.556865
1.6	0.549851
1.7	0.542928
1.8	0.536098
1.9	0.529355
2	0.522697
2.1	0.516122
2.2	0.509631
2.3	0.503222
2.4	0.496897
2.5	0.49065
2.6	0.484476
2.7	0.478376
2.8	0.472348
2.9	0.466395
3	0.460518
3.1	0.454715
3.2	0.448985
3.3	0.443332
3.4	0.437751
3.5	0.43224
3.6	0.426801
3.7	0.421431
3.8	0.416125
3.9	0.410886
4	0.405712
4.1	0.400603
4.2	0.395559
4.3	0.390579
4.4	0.385663
4.5	0.38081
4.6	0.376015
4.7	0.371277
4.8	0.366599
4.9	0.36198
5	0.357414
5.1	0.3529
5.2	0.348444
5.3	0.344044
5.4	0.339703
5.5	0.335422
5.6	0.331191
5.7	0.327014
5.8	0.32289
5.9	0.318817
6	0.314797
6.1	0.310822
6.2	0.306886
6.3	0.302992
6.4	0.299142
6.5	0.295339
6.6	0.291589
6.7	0.287892
6.8	0.28424
6.9	0.280636
7	0.277077
7.1	0.273563
7.2	0.270094
7.3	0.266669
7.4	0.263293
7.5	0.259963
7.6	0.256679
7.7	0.253436
7.8	0.250231
7.9	0.247066
8	0.243939
8.1	0.240847
8.2	0.237797
8.3	0.234783
8.4	0.231802
8.5	0.228854
8.6	0.225938
8.7	0.223059
8.8	0.220215
8.9	0.217404
9	0.21463
9.1	0.211897
9.2	0.209205
9.3	0.206551
9.4	0.203935
9.5	0.201353
9.6	0.198802
9.7	0.196281
9.8	0.193785
9.9	0.191314
10	0.188874
10.1	0.186467
10.2	0.184093
10.3	0.181752
10.4	0.179445
10.5	0.177168
10.6	0.174922
10.7	0.172705
10.8	0.170518
10.9	0.168363
11	0.166238
11.1	0.164142
11.2	0.162071
11.3	0.160028
11.4	0.158012
11.5	0.156029
11.6	0.154078
11.7	0.152153
11.8	0.15025
11.9	0.14837
12	0.146513
12.1	0.144682
12.2	0.142873
12.3	0.141092
12.4	0.139334
12.5	0.137595
12.6	0.135877
12.7	0.134179
12.8	0.132507
12.9	0.130855
13	0.129221
13.1	0.127609
13.2	0.126017
13.3	0.124447
13.4	0.122899
13.5	0.121368
13.6	0.119853
13.7	0.118358
13.8	0.11688
13.9	0.115421
14	0.113979
14.1	0.112554
14.2	0.11115
14.3	0.109765
14.4	0.108394
14.5	0.107044
14.6	0.105712
14.7	0.104392
14.8	0.103091
14.9	0.101809
15	0.100536
15.1	0.0992828
15.2	0.0980502
15.3	0.0968398
15.4	0.0956451
15.5	0.094463
15.6	0.0932968
15.7	0.0921451
15.8	0.0910062
15.9	0.0898816
16	0.0887685
16.1	0.0876691
16.2	0.0865809
16.3	0.0855052
16.4	0.0844479
16.5	0.0834095
16.6	0.0823833
16.7	0.0813664
16.8	0.0803574
16.9	0.0793617
17	0.0783751
17.1	0.0773975
17.2	0.0764327
17.3	0.0754785
17.4	0.0745395
17.5	0.0736149
17.6	0.0727046
17.7	0.0718066
17.8	0.0709232
17.9	0.0700468
18	0.0691808
18.1	0.068325
18.2	0.0674834
18.3	0.0666518
18.4	0.0658334
18.5	0.0650276
18.6	0.0642338
18.7	0.0634514
18.8	0.0626795
18.9	0.0619176
19	0.0611662
19.1	0.0604222
19.2	0.0596862
19.3	0.0589535
19.4	0.0582256
19.5	0.0575035
19.6	0.0567893
19.7	0.0560878
19.8	0.0553986
19.9	0.0547175
20	0.0540404
20.1	0.053366
20.2	0.0526989
20.3	0.0520431
20.4	0.0513991
20.5	0.0507675
20.6	0.0501448
20.7	0.0495265
20.8	0.0489147
20.9	0.0483138
21	0.0477225
21.1	0.0471346
21.2	0.0465532
21.3	0.045981
21.4	0.045417
21.5	0.0448581
21.6	0.044304
21.7	0.0437571
21.8	0.0432139
21.9	0.0426728
22	0.0421352
22.1	0.0416048
22.2	0.041084
22.3	0.0405692
22.4	0.040059
22.5	0.0395516
22.6	0.0390427
22.7	0.0385318
22.8	0.0380295
22.9	0.0375344
23	0.0370423
23.1	0.0365575
23.2	0.0360837
23.3	0.0356136
23.4	0.0351512
23.5	0.0346953
23.6	0.0342459
23.7	0.0337993
23.8	0.0333586
23.9	0.0329277
24	0.0325042
24.1	0.0320883
24.2	0.0316803
24.3	0.0312794
24.4	0.0308873
24.5	0.0305009
24.6	0.0301158
24.7	0.0297295
24.8	0.0293427
24.9	0.0289576
25	0.0285826
25.1	0.028216
25.2	0.0278575
25.3	0.0275041
25.4	0.0271595
25.5	0.0268239
25.6	0.026497
25.7	0.0261793
25.8	0.0258686
25.9	0.0255677
26	0.0252768
26.1	0.0249906
26.2	0.0247092
26.3	0.0244328
26.4	0.0241598
26.5	0.0238913
26.6	0.0236235
26.7	0.0233633
26.8	0.0231084
26.9	0.0228606
27	0.0226174
27.1	0.0223745
27.2	0.0221324
27.3	0.0218889
27.4	0.0216425
27.5	0.0213952
27.6	0.0211492
27.7	0.0209061
27.8	0.0206631
27.9	0.0204223
28	0.020181
28.1	0.0199415
28.2	0.0197008
28.3	0.0194613
28.4	0.0192227
28.5	0.018983
28.6	0.0187456
28.7	0.0185155
28.8	0.0182926
28.9	0.0180762
29	0.0178628
29.1	0.0176518
29.2	0.0174451
29.3	0.0172409
29.4	0.0170387
29.5	0.0168348
29.6	0.0166297
29.7	0.0164265
29.8	0.0162209
29.9	0.0160152
30	0.0158068
30.1	0.0156039
30.2	0.0154049
30.3	0.0152118
30.4	0.0150247
30.5	0.0148417
30.6	0.0146606
30.7	0.0144833
30.8	0.0143063
30.9	0.0141287
31	0.0139512
31.1	0.0137715
31.2	0.0135883
31.3	0.0134085
31.4	0.0132317
31.5	0.0130568
31.6	0.0128868
31.7	0.0127187
31.8	0.0125512
31.9	0.0123871
32	0.0122226
32.1	0.0120566
32.2	0.0118924
32.3	0.0117295
32.4	0.0115682
32.5	0.0114054
32.6	0.0112477
32.7	0.0110963
32.8	0.0109467
32.9	0.0108059
33	0.0106735
33.1	0.0105405
33.2	0.0104058
33.3	0.0102751
33.4	0.0101449
33.5	0.0100144
33.6	0.00989059
33.7	0.00977263
33.8	0.00965587
33.9	0.00953855
34	0.00942195
34.1	0.00930474
34.2	0.00919289
34.3	0.00908616
34.4	0.00898266
34.5	0.00887901
34.6	0.0087707
34.7	0.00865629
34.8	0.0085406
34.9	0.00842812
35	0.00831673
35.1	0.00820596
35.2	0.00809532
35.3	0.00797622
35.4	0.00785135
35.5	0.00772561
35.6	0.00760224
35.7	0.00748235
35.8	0.00736149
35.9	0.00724704
36	0.00713873
36.1	0.00703816
36.2	0.00693961
36.3	0.00684565
36.4	0.00675196
36.5	0.00666283
36.6	0.00657744
36.7	0.00649779
36.8	0.00642419
36.9	0.00635319
37	0.0062823
37.1	0.00621043
37.2	0.00613715
37.3	0.00606492
37.4	0.00600053
37.5	0.00593906
37.6	0.0058825
37.7	0.00583149
37.8	0.00578155
37.9	0.00573088
38	0.00568128
38.1	0.00562801
38.2	0.00557302
38.3	0.0055163
38.4	0.00545825
38.5	0.00539705
38.6	0.00533087
38.7	0.00526431
38.8	0.00520011
38.9	0.00513677
39	0.00507394
39.1	0.00501395
39.2	0.00495184
39.3	0.0048894
39.4	0.0048277
39.5	0.00477001
39.6	0.00471756
39.7	0.00466852
39.8	0.00462292
39.9	0.00457968
40	0.00453472
40.1	0.00448096
40.2	0.00442411
40.3	0.00436791
40.4	0.00431112
40.5	0.00425887
40.6	0.00420958
40.7	0.00416264
40.8	0.00411743
40.9	0.00407465
41	0.00403095
41.1	0.0039886
41.2	0.00394899
41.3	0.00391487
41.4	0.00388547
41.5	0.00385575
41.6	0.00382423
41.7	0.00379189
41.8	0.00376046
41.9	0.00372697
42	0.00369754
42.1	0.00367417
42.2	0.00365109
42.3	0.00363001
42.4	0.00360467
42.5	0.00357853
42.6	0.00355529
42.7	0.0035292
42.8	0.00349172
42.9	0.00344557
43	0.00339278
43.1	0.00333267
43.2	0.00327282
43.3	0.00320965
43.4	0.00313941
43.5	0.00306771
43.6	0.00299302
43.7	0.00291507
43.8	0.00283255
43.9	0.00275236
44	0.00267815
44.1	0.00260699
44.2	0.00254135
44.3	0.002482
44.4	0.00242651
44.5	0.00237111
44.6	0.00231712
44.7	0.00226439
44.8	0.00221494
44.9	0.00216683
45	0.00212327
45.1	0.00208466
45.2	0.00205192
45.3	0.00202385
45.4	0.00199909
45.5	0.00197011
45.6	0.001935
45.7	0.00189791
45.8	0.00186018
45.9	0.00181785
46	0.00177275
46.1	0.00173061
46.2	0.00169316
46.3	0.0016581
46.4	0.00162368
46.5	0.00159316
46.6	0.00155849
46.7	0.00152167
46.8	0.00148176
46.9	0.00143974
47	0.00139196
47.1	0.00134028
47.2	0.00128775
47.3	0.00123694
47.4	0.00118288
47.5	0.00112963
47.6	0.0010727
47.7	0.00101347
47.8	0.000949926
47.9	0.000886809
48	0.000820831
48.1	0.000755295
48.2	0.000692521
48.3	0.000631894
48.4	0.000573773
48.5	0.000520108
48.6	0.00046735
48.7	0.000422266
48.8	0.000382305
48.9	0.000346544
49	0.000313301
49.1	0.000280319
49.2	0.000248374
49.3	0.000219517
49.4	0.000191222
49.5	0.000163919
49.6	0.000140588
49.7	0.000123471
49.8	0.000109823
49.9	9.88915e-05
50	8.46252e-05
50.1	6.90831e-05
50.2	5.33713e-05
50.3	3.78862e-05
50.4	1.80684e-05
50.5	-3.42965e-06
50.6	-2.39576e-05
50.7	-4.49773e-05
50.8	-6.46442e-05
50.9	-8.67075e-05
51	-0.000115389
51.1	-0.00014807
51.2	-0.000180288
51.3	-0.000208687
51.4	-0.000237176
51.5	-0.000268727
51.6	-0.000296569
51.7	-0.000317704
51.8	-0.000334548
51.9	-0.000345853
52	-0.000355548
52.1	-0.000368439
52.2	-0.000382536
52.3	-0.00039316
52.4	-0.000397752
52.5	-0.000405762
52.6	-0.000415977
52.7	-0.000427542
52.8	-0.000440818
52.9	-0.000455697
53	-0.000470096
53.1	-0.000480578
53.2	-0.00048823
53.3	-0.000488263
53.4	-0.00048056
53.5	-0.000468145
53.6	-0.000453017
53.7	-0.000440729
53.8	-0.000432553
53.9	-0.000422571
54	-0.000411527
54.1	-0.000400069
54.2	-0.000386386
54.3	-0.000365045
54.4	-0.000338993
54.5	-0.00031279
54.6	-0.000289372
54.7	-0.000269833
54.8	-0.00024668
54.9	-0.00022079
55	-0.000193483
55.1	-0.000166554
55.2	-0.000140041
55.3	-0.000116071
55.4	-9.71505e-05
55.5	-8.15064e-05
55.6	-6.99916e-05
55.7	-6.12136e-05
55.8	-5.32287e-05
55.9	-4.7995e-05
56	-4.28209e-05
56.1	-3.60083e-05
56.2	-2.6526e-05
56.3	-1.82097e-05
56.4	-9.8038e-06
56.5	1.72753e-06
56.6	1.22715e-05
56.7	2.08674e-05
56.8	2.89889e-05
56.9	3.76816e-05
57	4.32346e-05
57.1	4.86242e-05
57.2	5.34309e-05
57.3	6.1396e-05
57.4	7.42744e-05
57.5	9.12999e-05
57.6	0.000106242
57.7	0.000116448
57.8	0.000118215
57.9	0.000112644
58	0.000101075
58.1	8.58233e-05
58.2	7.23303e-05
58.3	5.94442e-05
58.4	4.23884e-05
58.5	2.43014e-05
58.6	1.06807e-05
58.7	-3.86854e-06
58.8	-1.4672e-05
58.9	-2.57721e-05
59	-3.76071e-05
59.1	-5.15425e-05
59.2	-6.80904e-05
59.3	-8.63021e-05
59.4	-0.000103437
59.5	-0.000119563
59.6	-0.000133997
59.7	-0.00014877
59.8	-0.000161001
59.9	-0.000170006
60	-0.000177013
60.1	-0.000186606
60.2	-0.000199687
60.3	-0.000218873
60.4	-0.000236239
60.5	-0.000245553
60.6	-0.000248913
60.7	-0.000258821
60.8	-0.000278688
60.9	-0.000299247
61	-0.000315967
61.1	-0.000329243
61.2	-0.000340996
61.3	-0.00035342
61.4	-0.000365664
61.5	-0.000373342
61.6	-0.000382779
61.7	-0.000391485
61.8	-0.000402204
61.9	-0.000411354
62	-0.000419294
62.1	-0.000429315
62.2	-0.000441934
62.3	-0.000450612
62.4	-0.000452683
62.5	-0.000452672
62.6	-0.000449177
62.7	-0.000443558
62.8	-0.000433617
62.9	-0.000420213
63	-0.000401898
63.1	-0.000376447
63.2	-0.000345966
63.3	-0.000314531
63.4	-0.000285334
63.5	-0.000255201
63.6	-0.000225743
63.7	-0.000193618
63.8	-0.000160276
63.9	-0.00012596
64	-8.72578e-05
64.1	-4.43678e-05
64.2	-2.20436e-06
64.3	3.41668e-05
64.4	6.82641e-05
64.5	9.92271e-05
64.6	0.000123782
64.7	0.00014634
64.8	0.000168961
64.9	0.000191175
65	0.00020999
65.1	0.000226259
65.2	0.0002436
65.3	0.000261723
65.4	0.000283753
65.5	0.00030598
65.6	0.000326968
65.7	0.000348346
65.8	0.00037272
65.9	0.000403081
66	0.000440781
66.1	0.000483382
66.2	0.000523458
66.3	0.000560262
66.4	0.000594539
66.5	0.000631343
66.6	0.000668218
66.7	0.000707265
66.8	0.000746202
66.9	0.000784748
67	0.000820816
67.1	0.000857264
67.2	0.000894161
67.3	0.000928664
67.4	0.000962035
67.5	0.0009913
67.6	0.00101778
67.7	0.0010423
67.8	0.00106344
67.9	0.00108263
68	0.00109958
68.1	0.00111209
68.2	0.00112161
68.3	0.00113358
68.4	0.00114882
68.5	0.00116651
68.6	0.0011818
68.7	0.00119901
68.8	0.00121513
68.9	0.00122821
69	0.00124174
69.1	0.00125714
69.2	0.00127162
69.3	0.00128735
69.4	0.00130431
69.5	0.00132709
69.6	0.00135038
69.7	0.00137372
69.8	0.00139356
69.9	0.00140856
70	0.00142358
70.1	0.00144272
70.2	0.00145954
70.3	0.00147314
70.4	0.00147978
70.5	0.00148333
70.6	0.00148696
70.7	0.00149432
70.8	0.00150602
70.9	0.00151731
71	0.00152919
71.1	0.00154323
71.2	0.00155911
71.3	0.00157783
71.4	0.00159986
71.5	0.00162465
71.6	0.00164941
71.7	0.00167096
71.8	0.00168721
71.9	0.00170301
72	0.00171522
72.1	0.00172325
72.2	0.00173153
72.3	0.00173808
72.4	0.00174321
72.5	0.00174595
72.6	0.00174469
72.7	0.00173796
72.8	0.00172932
72.9	0.00171701
73	0.00170615
73.1	0.00169349
73.2	0.00167997
73.3	0.00166831
73.4	0.00165468
73.5	0.00164091
73.6	0.00162398
73.7	0.00160933
73.8	0.00159463
73.9	0.00157971
74	0.0015625
74.1	0.00153908
74.2	0.00151043
74.3	0.00147406
74.4	0.00143427
74.5	0.00139314
74.6	0.00135002
74.7	0.00130201
74.8	0.00125258
74.9	0.00120379
75	0.00115146
75.1	0.00110054
75.2	0.00105109
75.3	0.00100354
75.4	0.00095781
75.5	0.000909369
75.6	0.000860928
75.7	0.000811029
75.8	0.000755867
75.9	0.000699418
76	0.000634468
76.1	0.000565107
76.2	0.000496424
76.3	0.000432531
76.4	0.000368717
76.5	0.000304435
76.6	0.000242743
76.7	0.00018524
76.8	0.000130074
76.9	7.90545e-05
77	2.63158e-05
77.1	-2.80215e-05
77.2	-8.12772e-05
77.3	-0.000131396
77.4	-0.00018192
77.5	-0.000228471
77.6	-0.000269874
77.7	-0.000312037
77.8	-0.00035178
77.9	-0.000391768
78	-0.00043338
78.1	-0.000474354
78.2	-0.0005148
78.3	-0.000553961
78.4	-0.000593137
78.5	-0.000632337
78.6	-0.000667621
78.7	-0.000697499
78.8	-0.000723246
78.9	-0.000742329
79	-0.000757891
79.1	-0.000775518
79.2	-0.000793221
79.3	-0.000811848
79.4	-0.000828232
79.5	-0.000841545
79.6	-0.00085327
79.7	-0.000865407
79.8	-0.000880329
79.9	-0.000895593
80	-0.000910834
80.1	-0.000928625
80.2	-0.000945473
80.3	-0.000961196
80.4	-0.00097634
80.5	-0.000990915
80.6	-0.00100152
80.7	-0.00100572
80.8	-0.00100585
80.9	-0.0010009
81	-0.000997486
81.1	-0.000995055
81.2	-0.000987754
81.3	-0.000983645
81.4	-0.000975663
81.5	-0.000969562
81.6	-0.000963017
81.7	-0.000958939
81.8	-0.000956105
81.9	-0.000954772
82	-0.000955727
82.1	-0.000956109
82.2	-0.000957907
82.3	-0.000963648
82.4	-0.000972626
82.5	-0.000982677
82.6	-0.000995749
82.7	-0.00100734
82.8	-0.0010182
82.9	-0.00102697
83	-0.00103302
83.1	-0.00103402
83.2	-0.00103099
83.3	-0.0010227
83.4	-0.0010145
83.5	-0.00100996
83.6	-0.00100751
83.7	-0.00100473
83.8	-0.000998683
83.9	-0.000990485
84	-0.000980423
84.1	-0.000967666
84.2	-0.000952334
84.3	-0.000934213
84.4	-0.000915205
84.5	-0.000896247
84.6	-0.000879889
84.7	-0.000859177
84.8	-0.000840795
84.9	-0.000824866
85	-0.000807717
85.1	-0.000791981
85.2	-0.000774992
85.3	-0.000752275
85.4	-0.000726551
85.5	-0.000699107
85.6	-0.000673981
85.7	-0.000652709
85.8	-0.000633006
85.9	-0.000617568
86	-0.000603672
86.1	-0.000587299
86.2	-0.000564596
86.3	-0.000543313
86.4	-0.00052601
86.5	-0.00051203
86.6	-0.000499414
86.7	-0.000484468
86.8	-0.00047245
86.9	-0.00045522
87	-0.00043948
87.1	-0.000425746
87.2	-0.000415852
87.3	-0.000406766
87.4	-0.000396161
87.5	-0.00038592
87.6	-0.000373032
87.7	-0.000364187
87.8	-0.000360616
87.9	-0.000362149
88	-0.000363374
88.1	-0.000365882
88.2	-0.000367706
88.3	-0.000372316
88.4	-0.000375121
88.5	-0.000375765
88.6	-0.000375677
88.7	-0.000372956
88.8	-0.00036953
88.9	-0.000368391
89	-0.000369448
89.1	-0.000366315
89.2	-0.000363984
89.3	-0.000364328
89.4	-0.000366422
89.5	-0.000368971
89.6	-0.00036821
89.7	-0.000370497
89.8	-0.000377312
89.9	-0.000390744
90	-0.000407372
90.1	-0.000421689
90.2	-0.000432145
90.3	-0.000437405
90.4	-0.000438526
90.5	-0.000440615
90.6	-0.000445796
90.7	-0.000449913
90.8	-0.000455331
90.9	-0.000459512
91	-0.000462463
91.1	-0.000467431
91.2	-0.000471479
91.3	-0.000475748
91.4	-0.000481048
91.5	-0.000485622
91.6	-0.000492158
91.7	-0.000503206
91.8	-0.000519581
91.9	-0.000532461
92	-0.00054244
92.1	-0.000551674
92.2	-0.000564868
92.3	-0.000580025
92.4	-0.000590173
92.5	-0.000599502
92.6	-0.000604503
92.7	-0.000609596
92.8	-0.000615652
92.9	-0.000618209
93	-0.000616434
93.1	-0.00061611
93.2	-0.000619405
93.3	-0.000621067
93.4	-0.000619961
93.5	-0.000618621
93.6	-0.000619872
93.7	-0.000623629
93.8	-0.00063257
93.9	-0.000639185
94	-0.000644042
94.1	-0.000648741
94.2	-0.000650614
94.3	-0.000647658
94.4	-0.00064288
94.5	-0.000635711
94.6	-0.000624283
94.7	-0.000603531
94.8	-0.000579456
94.9	-0.000553322
95	-0.000524801
95.1	-0.000494716
95.2	-0.000465543
95.3	-0.000430566
95.4	-0.000392118
95.5	-0.00035171
95.6	-0.000310362
95.7	-0.000267369
95.8	-0.000225992
95.9	-0.00018432
96	-0.000141828
96.1	-9.86518e-05
96.2	-5.98488e-05
96.3	-2.51927e-05
96.4	1.14319e-05
96.5	5.00668e-05
96.6	8.71537e-05
96.7	0.000121662
96.8	0.000151306
96.9	0.00017798
97	0.000202851
97.1	0.0002295
97.2	0.000254449
97.3	0.000277722
97.4	0.000300999
97.5	0.000324126
97.6	0.000345021
97.7	0.00036723
97.8	0.000390673
97.9	0.000409482
98	0.000426552
98.1	0.000439992
98.2	0.000449862
98.3	0.000455173
98.4	0.000454879
98.5	0.000451792
98.6	0.000444632
98.7	0.000432879
98.8	0.000421922
98.9	0.000414416
99	0.000410968
99.1	0.000401878
99.2	0.000386571
99.3	0.000367745
99.4	0.000349691
99.5	0.000334963
99.6	0.000322226
99.7	0.000314142
99.8	0.000307879
99.9	0.000305679
100	0.00031045
100.1	0.000322427
100.2	0.000338873
100.3	0.00035448
100.4	0.000371898
100.5	0.000395469
100.6	0.000420401
100.7	0.000443814
100.8	0.000468208
100.9	0.000491306
101	0.000513866
101.1	0.000539438
101.2	0.000569769
101.3	0.000600666
101.4	0.000629439
101.5	0.000659397
101.6	0.000685875
101.7	0.000709149
101.8	0.000737363
101.9	0.000764543
102	0.000787887
102.1	0.000808081
102.2	0.00082008
102.3	0.000825
102.4	0.000825129
102.5	0.00081981
102.6	0.000810413
102.7	0.000800568
102.8	0.000788717
102.9	0.000777745
103	0.00076269
103.1	0.000752442
103.2	0.000748103
103.3	0.000753189
103.4	0.000758506
103.5	0.000764709
103.6	0.000771685
103.7	0.000779812
103.8	0.000793344
103.9	0.000811981
104	0.000835866
104.1	0.000862883
104.2	0.000896539
104.3	0.000929332
104.4	0.000961437
104.5	0.00098856
104.6	0.00100938
104.7	0.00102614
104.8	0.00104415
104.9	0.00106141
105	0.00108127
105.1	0.00109854
105.2	0.0011141
105.3	0.00112887
105.4	0.00114718
105.5	0.001162
105.6	0.00118015
105.7	0.00119473
105.8	0.00121051
105.9	0.00122589
106	0.00123674
106.1	0.00124644
106.2	0.00125403
106.3	0.00126362
106.4	0.00127027
106.5	0.00127738
106.6	0.00128699
106.7	0.00129769
106.8	0.00131489
106.9	0.00133192
107	0.00134635
107.1	0.00136005
107.2	0.00137509
107.3	0.001391
107.4	0.00140659
107.5	0.00142447
107.6	0.00144034
107.7	0.00145615
107.8	0.00147154
107.9	0.00148443
108	0.001493
108.1	0.00150034
108.2	0.0015044
108.3	0.00150227
108.4	0.00149644
108.5	0.00149537
108.6	0.00149249
108.7	0.00148836
108.8	0.00148264
108.9	0.00147362
109	0.00146231
109.1	0.00144968
109.2	0.00143735
109.3	0.0014249
109.4	0.00141151
109.5	0.00139802
109.6	0.00138458
109.7	0.00137351
109.8	0.00136013
109.9	0.00134517
110	0.00132732
110.1	0.00130586
110.2	0.00128117
110.3	0.00125239
110.4	0.00122306
110.5	0.00119069
110.6	0.00115925
110.7	0.00112759
110.8	0.00109443
110.9	0.00106022
111	0.00102485
111.1	0.000988595
111.2	0.000949518
111.3	0.000908451
111.4	0.000866872
111.5	0.000822362
111.6	0.000773588
111.7	0.000718849
111.8	0.000656068
111.9	0.000589548
112	0.000520736
112.1	0.000453309
112.2	0.000389665
112.3	0.000329438
112.4	0.000268796
112.5	0.000210631
112.6	0.000158079
112.7	0.000108174
112.8	5.84878e-05
112.9	1.02036e-05
113	-3.23259e-05
113.1	-7.35698e-05
113.2	-0.000116168
113.3	-0.000159344
113.4	-0.000201191
113.5	-0.000236784
113.6	-0.00026578
113.7	-0.000295216
113.8	-0.00032958
113.9	-0.000367371
114	-0.000410035
114.1	-0.000451257
114.2	-0.000490076
114.3	-0.000526461
114.4	-0.000564949
114.5	-0.000600273
114.6	-0.000628158
114.7	-0.000650338
114.8	-0.000670319
114.9	-0.000690527
115	-0.000709791
115.1	-0.000725434
115.2	-0.000735799
115.3	-0.00074787
115.4	-0.000759469
115.5	-0.000771067
115.6	-0.000784635
115.7	-0.000798202
115.8	-0.000813079
115.9	-0.000832456
116	-0.000853072
116.1	-0.000870232
116.2	-0.000882773
116.3	-0.000892595
116.4	-0.000900388
116.5	-0.000908276
116.6	-0.000916643
116.7	-0.000922463
116.8	-0.00092166
116.9	-0.000915201
117	-0.000902548
117.1	-0.000887263
117.2	-0.000869714
117.3	-0.000853258
117.4	-0.000834715
117.5	-0.00081188
117.6	-0.000787044
117.7	-0.000756761
117.8	-0.000725421
117.9	-0.000690803
118	-0.000655647
118.1	-0.000619845
118.2	-0.000591394
118.3	-0.000564357
118.4	-0.000535477
118.5	-0.000510038
118.6	-0.000489198
118.7	-0.000475982
118.8	-0.00046511
118.9	-0.000458494
119	-0.000453291
119.1	-0.000451716
119.2	-0.000448592
119.3	-0.000446358
119.4	-0.00044372
119.5	-0.000441879
119.6	-0.000436021
119.7	-0.000425597
119.8	-0.000414665
119.9	-0.000401544
120	-0.000386976
120.1	-0.000375371
120.2	-0.00036848
120.3	-0.000369467
120.4	-0.000368948
120.5	-0.000369687
120.6	-0.00036911
120.7	-0.00037261
120.8	-0.000377668
120.9	-0.00038368
121	-0.000392994
121.1	-0.000400522
121.2	-0.000407016
121.3	-0.000414874
121.4	-0.000423347
121.5	-0.00043046
121.6	-0.00044118
121.7	-0.000449966
121.8	-0.00045968
121.9	-0.000471622
122	-0.000489164
122.1	-0.00050492
122.2	-0.000517205
122.3	-0.000525519
122.4	-0.000534391
122.5	-0.000545158
122.6	-0.000561388
122.7	-0.000579761
122.8	-0.000601643
122.9	-0.000616628
123	-0.00062138
