LagTime	Correlation

0	1.21605
0.1	1.21104
0.2	1.20355
0.3	1.1955
0.4	1.18736
0.5	1.17924
0.6	1.1712
0.7	1.16323
0.8	1.15533
0.9	1.1475
1	1.13974
1.1	1.13204
1.2	1.12442
1.3	1.11686
1.4	1.10937
1.5	1.10194
1.6	1.09457
1.7	1.08727
1.8	1.08003
1.9	1.07285
2	1.06575
2.1	1.0587
2.2	1.05172
2.3	1.04481
2.4	1.03795
2.5	1.03115
2.6	1.0244
2.7	1.01771
2.8	1.01108
2.9	1.00451
3	0.997995
3.1	0.991546
3.2	0.985159
3.3	0.978829
3.4	0.972553
3.5	0.966329
3.6	0.960154
3.7	0.954027
3.8	0.947951
3.9	0.94193
4	0.935962
4.1	0.930046
4.2	0.924178
4.3	0.918355
4.4	0.912576
4.5	0.906846
4.6	0.901163
4.7	0.895526
4.8	0.889934
4.9	0.88439
5	0.878895
5.1	0.873444
5.2	0.868036
5.3	0.86267
5.4	0.85735
5.5	0.852078
5.6	0.846852
5.7	0.841673
5.8	0.836541
5.9	0.831454
6	0.826414
6.1	0.82142
6.2	0.81647
6.3	0.811563
6.4	0.806694
6.5	0.801871
6.6	0.797091
6.7	0.792354
6.8	0.787661
6.9	0.783011
7	0.778401
7.1	0.773829
7.2	0.76929
7.3	0.764787
7.4	0.760326
7.5	0.755901
7.6	0.751506
7.7	0.747144
7.8	0.742819
7.9	0.738532
8	0.734285
8.1	0.730074
8.2	0.725896
8.3	0.721748
8.4	0.717628
8.5	0.713533
8.6	0.709468
8.7	0.705435
8.8	0.701429
8.9	0.697453
9	0.693509
9.1	0.689596
9.2	0.685714
9.3	0.681864
9.4	0.678043
9.5	0.674254
9.6	0.670495
9.7	0.666763
9.8	0.663058
9.9	0.659381
10	0.655729
10.1	0.6521
10.2	0.6485
10.3	0.644927
10.4	0.641382
10.5	0.637868
10.6	0.634379
10.7	0.630915
10.8	0.627475
10.9	0.62406
11	0.620676
11.1	0.617319
11.2	0.613988
11.3	0.610682
11.4	0.607405
11.5	0.604152
11.6	0.600927
11.7	0.597732
11.8	0.594568
11.9	0.591433
12	0.588326
12.1	0.585247
12.2	0.582195
12.3	0.579167
12.4	0.57616
12.5	0.573176
12.6	0.570209
12.7	0.567261
12.8	0.564328
12.9	0.561408
13	0.558508
13.1	0.555633
13.2	0.552786
13.3	0.549957
13.4	0.547149
13.5	0.544356
13.6	0.541585
13.7	0.538836
13.8	0.536109
13.9	0.533402
14	0.530711
14.1	0.52804
14.2	0.525384
14.3	0.522742
14.4	0.520119
14.5	0.517513
14.6	0.514921
14.7	0.512346
14.8	0.509783
14.9	0.507235
15	0.504698
15.1	0.502167
15.2	0.499643
15.3	0.49713
15.4	0.494635
15.5	0.492158
15.6	0.489704
15.7	0.487271
15.8	0.484854
15.9	0.482447
16	0.48005
16.1	0.477663
16.2	0.47529
16.3	0.472932
16.4	0.470584
16.5	0.468249
16.6	0.465932
16.7	0.463636
16.8	0.461355
16.9	0.45909
17	0.45684
17.1	0.454604
17.2	0.452384
17.3	0.450177
17.4	0.447987
17.5	0.445813
17.6	0.443653
17.7	0.441508
17.8	0.439377
17.9	0.437255
18	0.435146
18.1	0.433047
18.2	0.430957
18.3	0.428878
18.4	0.426808
18.5	0.424755
18.6	0.422717
18.7	0.420692
18.8	0.418677
18.9	0.416673
19	0.41468
19.1	0.4127
19.2	0.410732
19.3	0.408774
19.4	0.406831
19.5	0.4049
19.6	0.402978
19.7	0.401064
19.8	0.39916
19.9	0.397272
20	0.395396
20.1	0.393523
20.2	0.391664
20.3	0.389816
20.4	0.387982
20.5	0.386162
20.6	0.384353
20.7	0.382559
20.8	0.380781
20.9	0.379013
21	0.377261
21.1	0.375519
21.2	0.373782
21.3	0.37205
21.4	0.370322
21.5	0.368603
21.6	0.366888
21.7	0.365177
21.8	0.363468
21.9	0.361768
22	0.360079
22.1	0.358399
22.2	0.356723
22.3	0.355054
22.4	0.353397
22.5	0.351751
22.6	0.35011
22.7	0.348475
22.8	0.346849
22.9	0.345235
23	0.343632
23.1	0.342038
23.2	0.340455
23.3	0.338878
23.4	0.337308
23.5	0.335751
23.6	0.334205
23.7	0.332666
23.8	0.331129
23.9	0.329605
24	0.328094
24.1	0.326601
24.2	0.325124
24.3	0.32366
24.4	0.322204
24.5	0.320753
24.6	0.319312
24.7	0.317883
24.8	0.316467
24.9	0.315059
25	0.313656
25.1	0.312256
25.2	0.310864
25.3	0.309484
25.4	0.308112
25.5	0.306748
25.6	0.305393
25.7	0.304048
25.8	0.302707
25.9	0.301373
26	0.300042
26.1	0.298719
26.2	0.297407
26.3	0.296103
26.4	0.294805
26.5	0.293514
26.6	0.292232
26.7	0.290962
26.8	0.289701
26.9	0.288448
27	0.287207
27.1	0.285978
27.2	0.284756
27.3	0.283537
27.4	0.282325
27.5	0.281113
27.6	0.279904
27.7	0.278699
27.8	0.277504
27.9	0.276313
28	0.275131
28.1	0.273956
28.2	0.272786
28.3	0.271617
28.4	0.27045
28.5	0.269288
28.6	0.268133
28.7	0.266984
28.8	0.265844
28.9	0.264713
29	0.263592
29.1	0.262475
29.2	0.261364
29.3	0.260262
29.4	0.259169
29.5	0.258086
29.6	0.257007
29.7	0.255929
29.8	0.254853
29.9	0.253778
30	0.252709
30.1	0.25164
30.2	0.250573
30.3	0.249513
30.4	0.248468
30.5	0.247432
30.6	0.246403
30.7	0.24538
30.8	0.244367
30.9	0.243356
31	0.242348
31.1	0.241345
31.2	0.240351
31.3	0.239367
31.4	0.238387
31.5	0.23741
31.6	0.236437
31.7	0.235467
31.8	0.234503
31.9	0.233544
32	0.23259
32.1	0.231638
32.2	0.230689
32.3	0.229741
32.4	0.228799
32.5	0.22786
32.6	0.226922
32.7	0.225986
32.8	0.225054
32.9	0.224129
33	0.223208
33.1	0.222291
33.2	0.22138
33.3	0.220475
33.4	0.219576
33.5	0.218682
33.6	0.217794
33.7	0.216911
33.8	0.216035
33.9	0.215163
34	0.214295
34.1	0.21343
34.2	0.212567
34.3	0.21171
34.4	0.210853
34.5	0.209999
34.6	0.209149
34.7	0.208303
34.8	0.207462
34.9	0.20662
35	0.205777
35.1	0.204938
35.2	0.204106
35.3	0.203282
35.4	0.202464
35.5	0.201648
35.6	0.20084
35.7	0.200033
35.8	0.199231
35.9	0.198441
36	0.197658
36.1	0.196872
36.2	0.196093
36.3	0.195313
36.4	0.194534
36.5	0.193759
36.6	0.192989
36.7	0.192226
36.8	0.191467
36.9	0.190712
37	0.189963
37.1	0.189217
37.2	0.188478
37.3	0.187748
37.4	0.187015
37.5	0.186279
37.6	0.185544
37.7	0.184813
37.8	0.184094
37.9	0.183383
38	0.182677
38.1	0.18197
38.2	0.181262
38.3	0.180555
38.4	0.179847
38.5	0.179144
38.6	0.178445
38.7	0.17775
38.8	0.177058
38.9	0.176367
39	0.175676
39.1	0.174985
39.2	0.174297
39.3	0.173613
39.4	0.172935
39.5	0.172257
39.6	0.171574
39.7	0.17089
39.8	0.170204
39.9	0.169514
40	0.168822
40.1	0.168136
40.2	0.167454
40.3	0.166777
40.4	0.166099
40.5	0.165425
40.6	0.164751
40.7	0.16408
40.8	0.163413
40.9	0.162745
41	0.162078
41.1	0.161411
41.2	0.160749
41.3	0.160093
41.4	0.159447
41.5	0.158803
41.6	0.158156
41.7	0.157505
41.8	0.156853
41.9	0.156206
42	0.155562
42.1	0.154923
42.2	0.154287
42.3	0.153649
42.4	0.153011
42.5	0.152376
42.6	0.151744
42.7	0.151111
42.8	0.150477
42.9	0.149846
43	0.149218
43.1	0.148593
43.2	0.147973
43.3	0.147359
43.4	0.146743
43.5	0.146129
43.6	0.145519
43.7	0.14491
43.8	0.144299
43.9	0.143695
44	0.143099
44.1	0.142507
44.2	0.141919
44.3	0.141337
44.4	0.14076
44.5	0.140183
44.6	0.13961
44.7	0.13904
44.8	0.138468
44.9	0.137906
45	0.137353
45.1	0.136808
45.2	0.136265
45.3	0.135727
45.4	0.135198
45.5	0.134671
45.6	0.134146
45.7	0.133625
45.8	0.133111
45.9	0.132597
46	0.132079
46.1	0.131558
46.2	0.131038
46.3	0.130517
46.4	0.13
46.5	0.129483
46.6	0.128966
46.7	0.128448
46.8	0.12793
46.9	0.127412
47	0.126894
47.1	0.126384
47.2	0.125883
47.3	0.12539
47.4	0.124903
47.5	0.124419
47.6	0.12394
47.7	0.123467
47.8	0.123001
47.9	0.122543
48	0.122091
48.1	0.121643
48.2	0.121197
48.3	0.120754
48.4	0.120316
48.5	0.119876
48.6	0.119437
48.7	0.118993
48.8	0.11855
48.9	0.118107
49	0.117662
49.1	0.117219
49.2	0.116778
49.3	0.116339
49.4	0.1159
49.5	0.115467
49.6	0.115034
49.7	0.1146
49.8	0.114162
49.9	0.113724
50	0.11329
50.1	0.112856
50.2	0.112422
50.3	0.111987
50.4	0.111555
50.5	0.111125
50.6	0.110693
50.7	0.110258
50.8	0.109826
50.9	0.109396
51	0.108963
51.1	0.108525
51.2	0.108085
51.3	0.107648
51.4	0.107212
51.5	0.106778
51.6	0.106345
51.7	0.105916
51.8	0.105493
51.9	0.105075
52	0.104664
52.1	0.104263
52.2	0.103864
52.3	0.103465
52.4	0.103062
52.5	0.102656
52.6	0.102251
52.7	0.101848
52.8	0.101445
52.9	0.101047
53	0.100649
53.1	0.100251
53.2	0.0998533
53.3	0.0994548
53.4	0.0990566
53.5	0.0986575
53.6	0.0982567
53.7	0.0978565
53.8	0.0974589
53.9	0.0970588
54	0.0966561
54.1	0.0962518
54.2	0.0958489
54.3	0.0954486
54.4	0.0950512
54.5	0.0946555
54.6	0.0942644
54.7	0.0938736
54.8	0.0934796
54.9	0.093083
55	0.0926857
55.1	0.0922873
55.2	0.091891
55.3	0.091497
55.4	0.0911068
55.5	0.0907183
55.6	0.0903337
55.7	0.089953
55.8	0.0895801
55.9	0.0892124
56	0.0888499
56.1	0.0884891
56.2	0.0881303
56.3	0.0877778
56.4	0.0874266
56.5	0.0870776
56.6	0.086732
56.7	0.086384
56.8	0.086035
56.9	0.0856851
57	0.0853328
57.1	0.0849834
57.2	0.084638
57.3	0.0842931
57.4	0.0839485
57.5	0.0836023
57.6	0.0832564
57.7	0.0829102
57.8	0.0825641
57.9	0.082216
58	0.0818715
58.1	0.0815273
58.2	0.0811813
58.3	0.080834
58.4	0.0804859
58.5	0.0801334
58.6	0.0797777
58.7	0.0794183
58.8	0.0790631
58.9	0.07871
59	0.0783563
59.1	0.0779996
59.2	0.0776423
59.3	0.0772886
59.4	0.076936
59.5	0.076583
59.6	0.0762287
59.7	0.0758745
59.8	0.075523
59.9	0.0751688
60	0.0748144
60.1	0.074463
60.2	0.0741118
60.3	0.0737597
60.4	0.0734117
60.5	0.0730678
60.6	0.0727343
60.7	0.0724061
60.8	0.0720852
60.9	0.0717705
61	0.0714613
61.1	0.0711532
61.2	0.0708432
61.3	0.0705296
61.4	0.0702187
61.5	0.06991
61.6	0.0695981
61.7	0.0692842
61.8	0.0689709
61.9	0.068658
62	0.0683477
62.1	0.0680385
62.2	0.0677274
62.3	0.0674154
62.4	0.067098
62.5	0.0667783
62.6	0.0664575
62.7	0.066141
62.8	0.0658281
62.9	0.0655154
63	0.0652055
63.1	0.0649034
63.2	0.0646017
63.3	0.0643026
63.4	0.0640055
63.5	0.063711
63.6	0.0634158
63.7	0.0631187
63.8	0.0628191
63.9	0.0625178
64	0.0622166
64.1	0.0619156
64.2	0.0616116
64.3	0.0613072
64.4	0.0610049
64.5	0.0607063
64.6	0.060408
64.7	0.0601065
64.8	0.0598042
64.9	0.0595046
65	0.0592086
65.1	0.0589165
65.2	0.0586236
65.3	0.0583254
65.4	0.0580249
65.5	0.0577227
65.6	0.0574247
65.7	0.0571288
65.8	0.0568367
65.9	0.0565472
66	0.0562595
66.1	0.0559738
66.2	0.0556923
66.3	0.0554087
66.4	0.055121
66.5	0.0548288
66.6	0.0545405
66.7	0.0542578
66.8	0.0539775
66.9	0.0536986
67	0.0534233
67.1	0.0531503
67.2	0.0528766
67.3	0.0526016
67.4	0.0523311
67.5	0.0520605
67.6	0.0517941
67.7	0.051532
67.8	0.0512741
67.9	0.0510252
68	0.0507776
68.1	0.0505362
68.2	0.050296
68.3	0.0500578
68.4	0.0498217
68.5	0.0495849
68.6	0.0493506
68.7	0.0491189
68.8	0.0488875
68.9	0.0486534
69	0.0484175
69.1	0.0481765
69.2	0.0479291
69.3	0.0476812
69.4	0.0474375
69.5	0.0471968
69.6	0.04696
69.7	0.0467269
69.8	0.0464964
69.9	0.0462678
70	0.0460408
70.1	0.0458143
70.2	0.0455893
70.3	0.0453652
70.4	0.045147
70.5	0.0449287
70.6	0.0447144
70.7	0.0445032
70.8	0.0442919
70.9	0.0440865
71	0.0438844
71.1	0.0436859
71.2	0.043483
71.3	0.0432795
71.4	0.043081
71.5	0.0428858
71.6	0.0426929
71.7	0.0425017
71.8	0.0423075
71.9	0.0421049
72	0.0419008
72.1	0.0417007
72.2	0.0415025
72.3	0.0413079
72.4	0.0411193
72.5	0.0409275
72.6	0.0407395
72.7	0.0405487
72.8	0.0403568
72.9	0.0401667
73	0.0399792
73.1	0.0397989
73.2	0.0396202
73.3	0.0394505
73.4	0.039284
73.5	0.0391212
73.6	0.0389616
73.7	0.0388016
73.8	0.0386413
73.9	0.0384818
74	0.0383241
74.1	0.0381687
74.2	0.0380167
74.3	0.0378674
74.4	0.037725
74.5	0.0375868
74.6	0.0374518
74.7	0.0373238
74.8	0.0372021
74.9	0.0370888
75	0.0369808
75.1	0.0368749
75.2	0.0367688
75.3	0.0366586
75.4	0.0365483
75.5	0.0364381
75.6	0.0363239
75.7	0.0362106
75.8	0.0360965
75.9	0.0359838
76	0.0358703
76.1	0.035753
76.2	0.0356313
76.3	0.0355032
76.4	0.0353715
76.5	0.0352381
76.6	0.0351048
76.7	0.0349721
76.8	0.0348394
76.9	0.0347134
77	0.0345902
77.1	0.0344722
77.2	0.0343531
77.3	0.03423
77.4	0.0341068
77.5	0.0339845
77.6	0.0338666
77.7	0.0337488
77.8	0.0336335
77.9	0.0335178
78	0.0334056
78.1	0.0333009
78.2	0.0331965
78.3	0.0330948
78.4	0.0329985
78.5	0.0329027
78.6	0.0328088
78.7	0.0327135
78.8	0.032613
78.9	0.0325093
79	0.0324032
79.1	0.0323013
79.2	0.0322009
79.3	0.032099
79.4	0.0319927
79.5	0.0318848
79.6	0.0317719
79.7	0.0316517
79.8	0.031528
79.9	0.0314014
80	0.0312697
80.1	0.031136
80.2	0.0310035
80.3	0.0308747
80.4	0.0307549
80.5	0.0306374
80.6	0.0305241
80.7	0.0304128
80.8	0.0303029
80.9	0.0301962
81	0.0300891
81.1	0.0299786
81.2	0.0298671
81.3	0.0297541
81.4	0.0296411
81.5	0.0295305
81.6	0.0294172
81.7	0.0292997
81.8	0.0291769
81.9	0.0290485
82	0.0289141
82.1	0.0287782
82.2	0.0286404
82.3	0.0284975
82.4	0.0283511
82.5	0.028202
82.6	0.0280493
82.7	0.0279004
82.8	0.0277487
82.9	0.0275956
83	0.0274443
83.1	0.0272981
83.2	0.0271587
83.3	0.027029
83.4	0.0269039
83.5	0.0267853
83.6	0.0266731
83.7	0.0265674
83.8	0.0264651
83.9	0.026364
84	0.0262664
84.1	0.0261684
84.2	0.026072
84.3	0.0259763
84.4	0.0258846
84.5	0.0257953
84.6	0.0257054
84.7	0.025615
84.8	0.0255211
84.9	0.0254252
85	0.0253273
85.1	0.0252304
85.2	0.0251325
85.3	0.0250352
85.4	0.0249363
85.5	0.0248373
85.6	0.0247389
85.7	0.0246415
85.8	0.0245474
85.9	0.0244611
86	0.0243782
86.1	0.0243005
86.2	0.0242236
86.3	0.0241441
86.4	0.0240616
86.5	0.0239797
86.6	0.0238985
86.7	0.0238172
86.8	0.0237369
86.9	0.0236579
87	0.0235827
87.1	0.0235119
87.2	0.0234383
87.3	0.0233649
87.4	0.0232968
87.5	0.0232313
87.6	0.0231638
87.7	0.0230893
87.8	0.0230113
87.9	0.0229317
88	0.0228542
88.1	0.0227828
88.2	0.0227167
88.3	0.0226561
88.4	0.0225956
88.5	0.0225349
88.6	0.0224821
88.7	0.0224302
88.8	0.0223784
88.9	0.0223279
89	0.0222774
89.1	0.0222238
89.2	0.022169
89.3	0.0221189
89.4	0.0220747
89.5	0.0220301
89.6	0.0219822
89.7	0.0219303
89.8	0.0218745
89.9	0.0218124
90	0.0217429
90.1	0.0216673
90.2	0.0215854
90.3	0.0215081
90.4	0.0214369
90.5	0.0213669
90.6	0.021298
90.7	0.0212299
90.8	0.0211591
90.9	0.0210882
91	0.0210155
91.1	0.0209405
91.2	0.0208667
91.3	0.020794
91.4	0.0207226
91.5	0.0206521
91.6	0.0205839
91.7	0.0205127
91.8	0.0204406
91.9	0.0203693
92	0.0203062
92.1	0.0202446
92.2	0.0201861
92.3	0.0201243
92.4	0.0200604
92.5	0.0199937
92.6	0.0199257
92.7	0.0198581
92.8	0.0197914
92.9	0.0197218
93	0.0196503
93.1	0.0195724
93.2	0.0194937
93.3	0.0194165
93.4	0.0193414
93.5	0.0192676
93.6	0.0191906
93.7	0.0191175
93.8	0.0190452
93.9	0.0189749
94	0.0189091
94.1	0.0188418
94.2	0.0187797
94.3	0.0187216
94.4	0.0186682
94.5	0.0186231
94.6	0.0185824
94.7	0.0185399
94.8	0.018496
94.9	0.018448
95	0.0183989
95.1	0.0183452
95.2	0.0182957
95.3	0.0182438
95.4	0.0181938
95.5	0.018145
95.6	0.0180955
95.7	0.0180467
95.8	0.0179898
95.9	0.0179254
96	0.0178586
96.1	0.017784
96.2	0.0177034
96.3	0.0176204
96.4	0.0175385
96.5	0.0174564
96.6	0.0173754
96.7	0.017297
96.8	0.0172155
96.9	0.017131
97	0.0170433
97.1	0.0169606
97.2	0.0168815
97.3	0.0168053
97.4	0.0167312
97.5	0.0166613
97.6	0.016591
97.7	0.0165194
97.8	0.0164484
97.9	0.0163785
98	0.0163114
98.1	0.0162426
98.2	0.0161771
98.3	0.0161095
98.4	0.0160399
98.5	0.0159713
98.6	0.0159057
98.7	0.0158421
98.8	0.0157797
98.9	0.0157116
99	0.0156358
99.1	0.0155589
99.2	0.0154864
99.3	0.0154167
99.4	0.0153513
99.5	0.0152888
99.6	0.0152214
99.7	0.0151477
99.8	0.0150716
99.9	0.014994
100	0.0149113
100.1	0.0148234
100.2	0.0147321
100.3	0.0146392
100.4	0.0145457
100.5	0.0144514
100.6	0.0143585
100.7	0.0142647
100.8	0.0141717
100.9	0.0140804
101	0.013992
101.1	0.0139039
101.2	0.0138135
101.3	0.0137233
101.4	0.013636
101.5	0.0135563
101.6	0.0134844
101.7	0.0134173
101.8	0.0133515
101.9	0.0132831
102	0.0132134
102.1	0.0131454
102.2	0.0130753
102.3	0.013004
102.4	0.0129323
102.5	0.0128564
102.6	0.0127774
102.7	0.0126972
102.8	0.0126143
102.9	0.012531
103	0.0124505
103.1	0.0123741
103.2	0.0123009
103.3	0.0122292
103.4	0.0121577
103.5	0.0120864
103.6	0.0120174
103.7	0.0119515
103.8	0.0118875
103.9	0.0118254
104	0.0117641
104.1	0.0117075
104.2	0.0116544
104.3	0.0115988
104.4	0.0115407
104.5	0.0114853
104.6	0.01143
104.7	0.0113731
104.8	0.011315
104.9	0.0112587
105	0.0112029
105.1	0.0111468
105.2	0.0110944
105.3	0.0110448
105.4	0.0109996
105.5	0.0109589
105.6	0.0109208
105.7	0.0108914
105.8	0.010862
105.9	0.010828
106	0.0107935
106.1	0.0107623
106.2	0.0107307
106.3	0.0106958
106.4	0.0106573
106.5	0.0106165
106.6	0.0105709
106.7	0.0105236
106.8	0.0104716
106.9	0.0104143
107	0.0103567
107.1	0.0102977
107.2	0.0102439
107.3	0.0101897
107.4	0.0101382
107.5	0.0100835
107.6	0.0100245
107.7	0.00996203
107.8	0.00990103
107.9	0.00984397
108	0.00979029
108.1	0.00973229
108.2	0.00967496
108.3	0.00962153
108.4	0.00957278
108.5	0.00952762
108.6	0.00948803
108.7	0.0094489
108.8	0.00941271
108.9	0.00937406
109	0.00933535
109.1	0.00929762
109.2	0.00925826
109.3	0.00922024
109.4	0.00918848
109.5	0.00916315
109.6	0.00913682
109.7	0.00910642
109.8	0.00907419
109.9	0.00904311
110	0.00901407
110.1	0.00898642
110.2	0.00895234
110.3	0.00891491
110.4	0.00887453
110.5	0.00883016
110.6	0.00878706
110.7	0.00875225
110.8	0.00872414
110.9	0.00870061
111	0.00867588
111.1	0.00864386
111.2	0.00860987
111.3	0.00857743
111.4	0.0085467
111.5	0.00852036
111.6	0.00849249
111.7	0.00846539
111.8	0.00843793
111.9	0.00841054
112	0.00838219
112.1	0.00835832
112.2	0.00833347
112.3	0.00830161
112.4	0.00826634
112.5	0.00822775
112.6	0.00818562
112.7	0.00813884
112.8	0.00809354
112.9	0.00805038
113	0.00800805
113.1	0.00796125
113.2	0.00790915
113.3	0.00784855
113.4	0.00778551
113.5	0.00772229
113.6	0.00765889
113.7	0.00759421
113.8	0.00752247
113.9	0.00744509
114	0.00736729
114.1	0.00729105
114.2	0.00721189
114.3	0.00713097
114.4	0.00705205
114.5	0.00697465
114.6	0.00689493
114.7	0.00681554
114.8	0.0067336
114.9	0.00665092
115	0.00656941
115.1	0.00648959
115.2	0.00641258
115.3	0.00634069
115.4	0.00627493
115.5	0.00621499
115.6	0.00615908
115.7	0.00610215
115.8	0.00605005
115.9	0.00599682
116	0.00594361
116.1	0.00588943
116.2	0.00583259
116.3	0.0057774
116.4	0.005716
116.5	0.00565096
116.6	0.00558548
116.7	0.00552057
116.8	0.00545832
116.9	0.00539559
117	0.0053377
117.1	0.00528122
117.2	0.00522749
117.3	0.00517614
117.4	0.0051251
117.5	0.00507628
117.6	0.00502804
117.7	0.00498228
117.8	0.00494071
117.9	0.00490458
118	0.0048719
118.1	0.00484596
118.2	0.00481669
118.3	0.00478312
118.4	0.00474335
118.5	0.0047014
118.6	0.00465467
118.7	0.00460595
118.8	0.00455695
118.9	0.00450521
119	0.00445159
119.1	0.00439927
119.2	0.00434555
119.3	0.00429318
119.4	0.0042383
119.5	0.00418555
119.6	0.0041353
119.7	0.00408868
119.8	0.00403932
119.9	0.00399041
120	0.00393772
120.1	0.00387797
120.2	0.00381685
120.3	0.00374813
120.4	0.00367155
120.5	0.00359372
120.6	0.00351738
120.7	0.00344134
120.8	0.00336573
120.9	0.00329112
121	0.00321301
121.1	0.00313823
121.2	0.00306098
121.3	0.00298301
121.4	0.0028992
121.5	0.00281127
121.6	0.00272181
121.7	0.00263031
121.8	0.00253927
121.9	0.00245317
122	0.00236659
122.1	0.00228235
122.2	0.00219965
122.3	0.00211534
122.4	0.00203736
122.5	0.0019668
122.6	0.00189871
122.7	0.00183242
122.8	0.00177053
122.9	0.00171269
123	0.0016568
123.1	0.00160366
123.2	0.00155778
123.3	0.00151473
123.4	0.00147217
123.5	0.00142721
123.6	0.00138023
123.7	0.00133272
123.8	0.0012898
123.9	0.00124751
124	0.00120659
124.1	0.00116595
124.2	0.00112929
124.3	0.00109686
124.4	0.00106528
124.5	0.00103329
124.6	0.00100553
124.7	0.000975457
124.8	0.000940988
124.9	0.000902321
125	0.000867022
125.1	0.000831978
125.2	0.000801013
125.3	0.000773156
125.4	0.000746563
125.5	0.000719273
125.6	0.000694373
125.7	0.000672946
125.8	0.000651367
125.9	0.000631007
126	0.000608739
126.1	0.000583669
126.2	0.000554065
126.3	0.000524405
126.4	0.000499556
126.5	0.00047773
126.6	0.000459443
126.7	0.000435739
126.8	0.000415414
126.9	0.000391679
127	0.000366295
127.1	0.000341042
127.2	0.000321301
127.3	0.000302537
127.4	0.00027842
127.5	0.000252582
127.6	0.000225042
127.7	0.000197768
127.8	0.000171684
127.9	0.000148373
128	0.000123245
128.1	9.87792e-05
128.2	7.82146e-05
128.3	6.17309e-05
128.4	5.15381e-05
128.5	4.01253e-05
128.6	2.16056e-05
128.7	-1.89786e-06
128.8	-3.20946e-05
128.9	-6.43445e-05
129	-9.46373e-05
129.1	-0.000123189
129.2	-0.000153396
129.3	-0.000184758
129.4	-0.000214554
129.5	-0.000244788
129.6	-0.000271184
129.7	-0.00029404
129.8	-0.00031079
129.9	-0.00032616
130	-0.000342561
130.1	-0.000356547
130.2	-0.000372595
130.3	-0.000386238
130.4	-0.000391834
130.5	-0.000396704
130.6	-0.000402943
130.7	-0.000406849
130.8	-0.000409364
130.9	-0.000412406
131	-0.00041389
131.1	-0.00041206
131.2	-0.000408289
131.3	-0.000404513
131.4	-0.000397282
131.5	-0.000390059
131.6	-0.000383981
131.7	-0.000381335
131.8	-0.000376709
131.9	-0.000366298
132	-0.000351507
132.1	-0.000340396
132.2	-0.000331925
132.3	-0.000325014
132.4	-0.000315072
132.5	-0.000300354
132.6	-0.00028101
132.7	-0.000257096
132.8	-0.00023163
132.9	-0.000210112
133	-0.000188647
133.1	-0.00016861
133.2	-0.000150902
133.3	-0.000138689
133.4	-0.000123576
133.5	-0.000108461
133.6	-9.68863e-05
133.7	-8.84891e-05
133.8	-7.87851e-05
133.9	-6.61083e-05
134	-4.70502e-05
134.1	-2.78396e-05
134.2	-9.41653e-06
134.3	6.70874e-06
134.4	1.81205e-05
134.5	2.70307e-05
134.6	3.65588e-05
134.7	4.42632e-05
134.8	4.9473e-05
134.9	5.9919e-05
135	6.99683e-05
135.1	7.65732e-05
