LagTime	Correlation

0	0.671688
0.1	0.666665
0.2	0.659174
0.3	0.651134
0.4	0.64303
0.5	0.63499
0.6	0.627041
0.7	0.619194
0.8	0.611446
0.9	0.603799
1	0.596254
1.1	0.588805
1.2	0.581446
1.3	0.57418
1.4	0.567004
1.5	0.559918
1.6	0.552918
1.7	0.546005
1.8	0.539184
1.9	0.532447
2	0.525792
2.1	0.519222
2.2	0.512741
2.3	0.506345
2.4	0.500032
2.5	0.4938
2.6	0.487642
2.7	0.481557
2.8	0.475545
2.9	0.469611
3	0.463746
3.1	0.457952
3.2	0.452226
3.3	0.446574
3.4	0.440994
3.5	0.435483
3.6	0.430037
3.7	0.424654
3.8	0.419338
3.9	0.414091
4	0.408912
4.1	0.403802
4.2	0.398759
4.3	0.393783
4.4	0.388876
4.5	0.384037
4.6	0.379259
4.7	0.374539
4.8	0.369875
4.9	0.365265
5	0.360717
5.1	0.356224
5.2	0.351782
5.3	0.347394
5.4	0.343059
5.5	0.33877
5.6	0.334535
5.7	0.330356
5.8	0.326226
5.9	0.322148
6	0.318118
6.1	0.31414
6.2	0.310214
6.3	0.306337
6.4	0.302509
6.5	0.298728
6.6	0.294991
6.7	0.2913
6.8	0.287655
6.9	0.284057
7	0.280503
7.1	0.27699
7.2	0.273517
7.3	0.27009
7.4	0.266705
7.5	0.263365
7.6	0.260063
7.7	0.256799
7.8	0.253575
7.9	0.250384
8	0.247225
8.1	0.244105
8.2	0.241024
8.3	0.237978
8.4	0.234966
8.5	0.231998
8.6	0.229071
8.7	0.226182
8.8	0.223326
8.9	0.220508
9	0.217732
9.1	0.214993
9.2	0.212287
9.3	0.209613
9.4	0.206974
9.5	0.204373
9.6	0.201804
9.7	0.199269
9.8	0.19677
9.9	0.194306
10	0.191874
10.1	0.189472
10.2	0.187101
10.3	0.184759
10.4	0.182444
10.5	0.180153
10.6	0.177888
10.7	0.175653
10.8	0.173446
10.9	0.171267
11	0.169116
11.1	0.166991
11.2	0.164895
11.3	0.162825
11.4	0.160774
11.5	0.158746
11.6	0.156741
11.7	0.154761
11.8	0.152807
11.9	0.150883
12	0.148989
12.1	0.147119
12.2	0.145271
12.3	0.143449
12.4	0.141652
12.5	0.13988
12.6	0.138131
12.7	0.136402
12.8	0.134697
12.9	0.133016
13	0.131357
13.1	0.129725
13.2	0.128116
13.3	0.126526
13.4	0.124952
13.5	0.123395
13.6	0.121858
13.7	0.120338
13.8	0.118829
13.9	0.11734
14	0.115867
14.1	0.114412
14.2	0.112971
14.3	0.111544
14.4	0.110135
14.5	0.108743
14.6	0.107365
14.7	0.106004
14.8	0.104657
14.9	0.103327
15	0.102012
15.1	0.100716
15.2	0.0994378
15.3	0.0981762
15.4	0.0969297
15.5	0.0956951
15.6	0.0944726
15.7	0.0932636
15.8	0.0920693
15.9	0.0908907
16	0.0897308
16.1	0.0885931
16.2	0.0874669
16.3	0.0863434
16.4	0.0852288
16.5	0.0841296
16.6	0.0830484
16.7	0.0819845
16.8	0.0809337
16.9	0.0798937
17	0.078865
17.1	0.0778464
17.2	0.0768435
17.3	0.0758511
17.4	0.0748696
17.5	0.0739022
17.6	0.0729454
17.7	0.0720039
17.8	0.0710744
17.9	0.0701528
18	0.0692415
18.1	0.0683425
18.2	0.0674561
18.3	0.0665835
18.4	0.0657255
18.5	0.0648831
18.6	0.0640577
18.7	0.0632476
18.8	0.0624454
18.9	0.0616516
19	0.0608664
19.1	0.0600848
19.2	0.0593139
19.3	0.0585545
19.4	0.0578092
19.5	0.0570751
19.6	0.0563501
19.7	0.0556329
19.8	0.0549229
19.9	0.0542221
20	0.0535366
20.1	0.0528682
20.2	0.0522085
20.3	0.0515521
20.4	0.0508994
20.5	0.050256
20.6	0.0496198
20.7	0.0489943
20.8	0.0483797
20.9	0.0477752
21	0.0471756
21.1	0.0465841
21.2	0.0460036
21.3	0.045435
21.4	0.0448791
21.5	0.0443277
21.6	0.0437824
21.7	0.0432485
21.8	0.0427249
21.9	0.0422116
22	0.0417078
22.1	0.0412205
22.2	0.0407438
22.3	0.0402735
22.4	0.0398108
22.5	0.0393579
22.6	0.0389096
22.7	0.0384626
22.8	0.0380133
22.9	0.0375631
23	0.0371098
23.1	0.0366597
23.2	0.0362185
23.3	0.0357831
23.4	0.0353543
23.5	0.0349314
23.6	0.0345194
23.7	0.0341142
23.8	0.0337161
23.9	0.0333232
24	0.0329358
24.1	0.0325509
24.2	0.0321696
24.3	0.0317944
24.4	0.0314219
24.5	0.0310472
24.6	0.0306742
24.7	0.0303047
24.8	0.0299395
24.9	0.0295782
25	0.029225
25.1	0.028879
25.2	0.0285381
25.3	0.0282045
25.4	0.0278805
25.5	0.0275647
25.6	0.0272538
25.7	0.0269488
25.8	0.0266463
25.9	0.0263455
26	0.0260483
26.1	0.0257525
26.2	0.0254578
26.3	0.0251686
26.4	0.0248832
26.5	0.0245992
26.6	0.0243213
26.7	0.0240492
26.8	0.023781
26.9	0.023514
27	0.0232498
27.1	0.022989
27.2	0.0227292
27.3	0.0224681
27.4	0.0222122
27.5	0.0219633
27.6	0.0217139
27.7	0.0214657
27.8	0.0212168
27.9	0.0209746
28	0.0207296
28.1	0.0204829
28.2	0.0202379
28.3	0.019991
28.4	0.0197417
28.5	0.0194958
28.6	0.0192498
28.7	0.0190095
28.8	0.0187722
28.9	0.0185355
29	0.0183026
29.1	0.0180699
29.2	0.0178392
29.3	0.0176117
29.4	0.0173873
29.5	0.0171712
29.6	0.0169603
29.7	0.0167503
29.8	0.0165395
29.9	0.0163291
30	0.0161216
30.1	0.0159198
30.2	0.0157222
30.3	0.0155309
30.4	0.0153459
30.5	0.0151608
30.6	0.0149784
30.7	0.0147964
30.8	0.0146132
30.9	0.0144346
31	0.0142646
31.1	0.0141048
31.2	0.0139483
31.3	0.0137957
31.4	0.013647
31.5	0.0134997
31.6	0.013355
31.7	0.01321
31.8	0.0130636
31.9	0.0129149
32	0.0127606
32.1	0.0126062
32.2	0.0124558
32.3	0.012308
32.4	0.0121564
32.5	0.012008
32.6	0.0118628
32.7	0.0117177
32.8	0.0115746
32.9	0.0114324
33	0.0112935
33.1	0.0111606
33.2	0.0110394
33.3	0.0109237
33.4	0.0108097
33.5	0.0106938
33.6	0.0105793
33.7	0.0104671
33.8	0.0103542
33.9	0.0102449
34	0.0101374
34.1	0.0100278
34.2	0.00991633
34.3	0.00980726
34.4	0.00970066
34.5	0.00959705
34.6	0.00949827
34.7	0.00940261
34.8	0.00930762
34.9	0.00921665
35	0.0091299
35.1	0.00904734
35.2	0.0089682
35.3	0.00889441
35.4	0.00882092
35.5	0.00874892
35.6	0.00867633
35.7	0.00860277
35.8	0.00852886
35.9	0.00845882
36	0.00839074
36.1	0.00832232
36.2	0.00825477
36.3	0.00818919
36.4	0.00812265
36.5	0.00805886
36.6	0.00799542
36.7	0.00793335
36.8	0.00787598
36.9	0.00781833
37	0.00776043
37.1	0.00770216
37.2	0.00764209
37.3	0.00758536
37.4	0.00753359
37.5	0.00748347
37.6	0.0074335
37.7	0.00738272
37.8	0.0073296
37.9	0.00728083
38	0.00723146
38.1	0.0071807
38.2	0.00713426
38.3	0.00709006
38.4	0.00704637
38.5	0.00699969
38.6	0.00694697
38.7	0.00688982
38.8	0.00683044
38.9	0.00677329
39	0.00671826
39.1	0.00666625
39.2	0.00661702
39.3	0.00656704
39.4	0.00651697
39.5	0.00647412
39.6	0.00643818
39.7	0.0064109
39.8	0.00638888
39.9	0.00636947
40	0.00635022
40.1	0.0063321
40.2	0.00631467
40.3	0.00629815
40.4	0.00628581
40.5	0.00627631
40.6	0.00626971
40.7	0.00626334
40.8	0.00625814
40.9	0.00624981
41	0.00623798
41.1	0.00622414
41.2	0.00621303
41.3	0.00620475
41.4	0.00619445
41.5	0.00617773
41.6	0.00615414
41.7	0.00613071
41.8	0.00610926
41.9	0.00608546
42	0.00606066
42.1	0.0060376
42.2	0.00601452
42.3	0.00599003
42.4	0.0059638
42.5	0.0059392
42.6	0.00591468
42.7	0.00588781
42.8	0.0058573
42.9	0.00582515
43	0.00579177
43.1	0.00575739
43.2	0.00572786
43.3	0.00570116
43.4	0.00567805
43.5	0.00565964
43.6	0.00564017
43.7	0.00561952
43.8	0.00559691
43.9	0.00557246
44	0.00554826
44.1	0.00552208
44.2	0.00549463
44.3	0.00546516
44.4	0.00543503
44.5	0.00540897
44.6	0.00538574
44.7	0.00536816
44.8	0.00535139
44.9	0.00534096
45	0.00533477
45.1	0.00532556
45.2	0.00531359
45.3	0.00530342
45.4	0.00529797
45.5	0.0052945
45.6	0.00529133
45.7	0.00528973
45.8	0.00528718
45.9	0.00528586
46	0.00528133
46.1	0.00527057
46.2	0.00525804
46.3	0.00523829
46.4	0.00521922
46.5	0.00519601
46.6	0.00516439
46.7	0.00512496
46.8	0.00508072
46.9	0.00503948
47	0.00500161
47.1	0.00496798
47.2	0.00493741
47.3	0.00490174
47.4	0.00486199
47.5	0.00482129
47.6	0.00478208
47.7	0.0047429
47.8	0.00470127
47.9	0.00466217
48	0.00462418
48.1	0.00458886
48.2	0.00455331
48.3	0.00451958
48.4	0.00448433
48.5	0.00444955
48.6	0.00441398
48.7	0.00437617
48.8	0.00433609
48.9	0.00429224
49	0.00424885
49.1	0.0042094
49.2	0.00417099
49.3	0.00413055
49.4	0.00409068
49.5	0.00405434
49.6	0.00402197
49.7	0.00398452
49.8	0.00394648
49.9	0.00390806
50	0.00386884
50.1	0.0038275
50.2	0.00378597
50.3	0.003752
50.4	0.00372207
50.5	0.00369418
50.6	0.00367163
50.7	0.00365326
50.8	0.00364062
50.9	0.003633
51	0.0036319
51.1	0.00363382
51.2	0.00363504
51.3	0.00363651
51.4	0.00363596
51.5	0.00363906
51.6	0.00364448
51.7	0.00365163
51.8	0.0036626
51.9	0.00367638
52	0.00368432
52.1	0.00368763
52.2	0.00369199
52.3	0.00369783
52.4	0.00370205
52.5	0.00370047
52.6	0.00369322
52.7	0.0036828
52.8	0.00366942
52.9	0.00365316
53	0.00363538
53.1	0.00361637
53.2	0.00359734
53.3	0.00358066
53.4	0.00356727
53.5	0.00355636
53.6	0.00354213
53.7	0.00352788
53.8	0.0035168
53.9	0.00350726
54	0.00349949
54.1	0.00349439
54.2	0.00348703
54.3	0.00347444
54.4	0.00346101
54.5	0.00344621
54.6	0.00343385
54.7	0.00341902
54.8	0.00339699
54.9	0.00337318
55	0.00335043
55.1	0.00332712
55.2	0.00329843
55.3	0.00326969
55.4	0.00324111
55.5	0.00320798
55.6	0.0031751
55.7	0.00314226
55.8	0.00311158
55.9	0.00307906
56	0.00304791
56.1	0.00302024
56.2	0.00299097
56.3	0.00296419
56.4	0.00293601
56.5	0.00290366
56.6	0.00287391
56.7	0.00284448
56.8	0.00281894
56.9	0.00279707
57	0.0027815
57.1	0.00276791
57.2	0.00275806
57.3	0.00275385
57.4	0.00275188
57.5	0.00275709
57.6	0.00276677
57.7	0.00277822
57.8	0.00278915
57.9	0.00279515
58	0.00279496
58.1	0.00279007
58.2	0.00278457
58.3	0.00277839
58.4	0.00277509
58.5	0.00277433
58.6	0.00277948
58.7	0.00279049
58.8	0.00280281
58.9	0.0028164
59	0.00282855
59.1	0.00283776
59.2	0.00284981
59.3	0.00286133
59.4	0.00286949
59.5	0.00287336
59.6	0.00287496
59.7	0.00287605
59.8	0.00288001
59.9	0.00288606
60	0.00289445
60.1	0.00290148
60.2	0.00290309
60.3	0.00290075
60.4	0.00289399
60.5	0.0028904
60.6	0.00288589
60.7	0.00288155
60.8	0.00287342
60.9	0.00286597
61	0.00286014
61.1	0.00285433
61.2	0.0028481
61.3	0.0028406
61.4	0.00282963
61.5	0.00282066
61.6	0.00281007
61.7	0.00280166
61.8	0.00279225
61.9	0.00278038
62	0.00276311
62.1	0.00274671
62.2	0.0027285
62.3	0.00271202
62.4	0.00269372
62.5	0.00267551
62.6	0.00266099
62.7	0.00264573
62.8	0.00262752
62.9	0.00261147
63	0.00259965
63.1	0.00258847
63.2	0.00257617
63.3	0.00256816
63.4	0.0025593
63.5	0.00255245
63.6	0.00254436
63.7	0.00253514
63.8	0.00252604
63.9	0.00251312
64	0.00249458
64.1	0.00247428
64.2	0.00245531
64.3	0.00243588
64.4	0.00241488
64.5	0.00239182
64.6	0.00237158
64.7	0.00234835
64.8	0.00232028
64.9	0.00229317
65	0.00227242
65.1	0.00225415
65.2	0.00223916
65.3	0.00222679
65.4	0.00221345
65.5	0.00220179
65.6	0.0021885
65.7	0.00217455
65.8	0.00216144
65.9	0.00214764
66	0.00213554
66.1	0.00212162
66.2	0.00210901
66.3	0.0020938
66.4	0.00207917
66.5	0.00206827
66.6	0.00205962
66.7	0.00205168
66.8	0.00204764
66.9	0.00204267
67	0.00203516
67.1	0.00202595
67.2	0.00201413
67.3	0.00199609
67.4	0.00197577
67.5	0.00195502
67.6	0.00193505
67.7	0.00191645
67.8	0.00189404
67.9	0.0018679
68	0.00183619
68.1	0.00180143
68.2	0.00176751
68.3	0.001734
68.4	0.00169816
68.5	0.0016606
68.6	0.0016235
68.7	0.00158689
68.8	0.00155237
68.9	0.00151642
69	0.00148007
69.1	0.00144148
69.2	0.00140377
69.3	0.00136949
69.4	0.0013368
69.5	0.00130121
69.6	0.00127081
69.7	0.00124031
69.8	0.00121111
69.9	0.0011883
70	0.0011694
70.1	0.00115194
70.2	0.00112857
70.3	0.00110555
70.4	0.00107871
70.5	0.00105155
70.6	0.00102358
70.7	0.000999804
70.8	0.000979946
70.9	0.000963709
71	0.000949779
71.1	0.000936286
71.2	0.000926921
71.3	0.000921431
71.4	0.000913051
71.5	0.000899948
71.6	0.000888292
71.7	0.000875986
71.8	0.000862225
71.9	0.000849076
72	0.000835717
72.1	0.000818818
72.2	0.000802384
72.3	0.000787799
72.4	0.000777977
72.5	0.000771432
72.6	0.000765126
72.7	0.000760926
72.8	0.000757286
72.9	0.000755178
73	0.000749002
73.1	0.000741797
73.2	0.000731544
73.3	0.000722062
73.4	0.000710613
73.5	0.000696487
73.6	0.000680846
73.7	0.000663346
73.8	0.000649626
73.9	0.000640386
74	0.000634681
74.1	0.000625747
74.2	0.000613694
74.3	0.000599832
74.4	0.000584188
74.5	0.000568304
74.6	0.00055314
74.7	0.000536569
74.8	0.000521243
74.9	0.000503594
75	0.000483008
75.1	0.000465528
75.2	0.000446032
75.3	0.000429101
75.4	0.000414095
75.5	0.000396923
75.6	0.000378022
75.7	0.000355311
75.8	0.000335639
75.9	0.000317006
76	0.000295785
76.1	0.000272001
76.2	0.000248941
76.3	0.00022742
76.4	0.000210733
76.5	0.000197034
76.6	0.000190556
76.7	0.000186467
76.8	0.000180356
76.9	0.000171659
77	0.000155359
77.1	0.000134478
77.2	0.000113702
77.3	9.39233e-05
77.4	6.92123e-05
77.5	4.72629e-05
77.6	2.4413e-05
77.7	8.91163e-07
77.8	-2.0576e-05
77.9	-3.96694e-05
78	-6.16812e-05
78.1	-8.78454e-05
78.2	-0.000113415
78.3	-0.000138571
78.4	-0.000158503
78.5	-0.000180239
78.6	-0.000203864
78.7	-0.000222923
78.8	-0.000237015
78.9	-0.00025278
79	-0.000268757
79.1	-0.000283791
79.2	-0.000304584
79.3	-0.000328047
79.4	-0.000349892
79.5	-0.000370419
79.6	-0.000396233
79.7	-0.00041786
79.8	-0.000434874
79.9	-0.000448808
80	-0.000467426
80.1	-0.000488218
80.2	-0.000510495
80.3	-0.000536803
80.4	-0.000561781
80.5	-0.000585498
80.6	-0.000613092
80.7	-0.000652402
80.8	-0.000696267
80.9	-0.000740436
81	-0.00078183
81.1	-0.000827161
81.2	-0.000874423
81.3	-0.000918185
81.4	-0.000959841
81.5	-0.00100113
81.6	-0.00104631
81.7	-0.00109208
81.8	-0.00113726
81.9	-0.0011844
82	-0.00123139
82.1	-0.00127614
82.2	-0.00132378
82.3	-0.00137266
82.4	-0.00141943
82.5	-0.00146395
82.6	-0.00150625
82.7	-0.00154851
82.8	-0.00158872
82.9	-0.00162552
83	-0.00165741
83.1	-0.001682
83.2	-0.00169978
83.3	-0.00170949
83.4	-0.00171503
83.5	-0.00171872
83.6	-0.00171894
83.7	-0.00171592
83.8	-0.00171101
83.9	-0.00170459
84	-0.00169992
84.1	-0.00169136
84.2	-0.00168048
84.3	-0.00166734
84.4	-0.00165204
84.5	-0.00163737
84.6	-0.00161702
84.7	-0.00159794
84.8	-0.00158297
84.9	-0.00156627
85	-0.00155502
85.1	-0.00155254
85.2	-0.00155251
85.3	-0.00155102
85.4	-0.00155066
85.5	-0.00155163
85.6	-0.00155618
85.7	-0.0015621
85.8	-0.00156278
85.9	-0.00156087
86	-0.00155961
86.1	-0.0015605
86.2	-0.00155773
86.3	-0.00154795
86.4	-0.00153801
86.5	-0.00152687
86.6	-0.00151873
86.7	-0.0015075
86.8	-0.00149525
86.9	-0.0014798
87	-0.00146075
87.1	-0.00143883
87.2	-0.00141532
87.3	-0.00138707
87.4	-0.00136034
87.5	-0.00133639
87.6	-0.00131315
87.7	-0.00128804
87.8	-0.0012614
87.9	-0.00123344
88	-0.00120345
88.1	-0.00117385
88.2	-0.0011393
88.3	-0.00110543
88.4	-0.00107264
88.5	-0.0010402
88.6	-0.00100945
88.7	-0.000976162
88.8	-0.000942286
88.9	-0.000906034
89	-0.000870569
89.1	-0.000839824
89.2	-0.00081134
89.3	-0.000784883
89.4	-0.000761764
89.5	-0.000737792
89.6	-0.000712955
89.7	-0.000692835
89.8	-0.00067843
89.9	-0.000667803
90	-0.000659388
90.1	-0.000651539
90.2	-0.000638544
90.3	-0.000623511
90.4	-0.000605339
90.5	-0.000583883
90.6	-0.000563317
90.7	-0.000542287
90.8	-0.000522505
90.9	-0.000503865
91	-0.000484915
91.1	-0.000465278
91.2	-0.00045468
91.3	-0.000454732
91.4	-0.00045922
91.5	-0.000469614
91.6	-0.000481974
91.7	-0.000498793
91.8	-0.000516482
91.9	-0.000532569
92	-0.000542602
92.1	-0.0005489
92.2	-0.000548978
92.3	-0.000541485
92.4	-0.000528574
92.5	-0.000509794
92.6	-0.000484852
92.7	-0.000454643
92.8	-0.000421608
92.9	-0.000383779
93	-0.000342629
93.1	-0.000297542
93.2	-0.000249007
93.3	-0.000193389
93.4	-0.000130652
93.5	-6.58508e-05
93.6	-2.50531e-06
93.7	5.92642e-05
93.8	0.000118869
93.9	0.000172754
94	0.000225913
94.1	0.000276093
94.2	0.00032133
94.3	0.000370272
94.4	0.000420263
94.5	0.000473447
94.6	0.000525483
94.7	0.000575968
94.8	0.000628792
94.9	0.000683047
95	0.000737839
95.1	0.000794665
95.2	0.000849073
95.3	0.000902845
95.4	0.000952527
95.5	0.00100218
95.6	0.00104765
95.7	0.00109008
95.8	0.00112827
95.9	0.00116385
96	0.00119775
96.1	0.00122975
96.2	0.00125966
96.3	0.00128955
96.4	0.00131993
96.5	0.00135004
96.6	0.00137835
96.7	0.00140597
96.8	0.001438
96.9	0.00147378
97	0.00151308
97.1	0.00155108
97.2	0.00158435
97.3	0.00161516
97.4	0.00163976
97.5	0.00165953
97.6	0.00168236
97.7	0.00170576
97.8	0.0017241
97.9	0.00173774
98	0.00174015
98.1	0.00173356
98.2	0.00172871
98.3	0.0017254
98.4	0.00172278
98.5	0.00172108
98.6	0.00171953
98.7	0.00171614
98.8	0.00171324
98.9	0.00170404
99	0.00169367
99.1	0.00168141
99.2	0.00167499
99.3	0.00167928
99.4	0.00169277
99.5	0.00170354
99.6	0.00171272
99.7	0.0017177
99.8	0.00171845
99.9	0.0017162
100	0.00171146
100.1	0.00170751
100.2	0.0017056
100.3	0.00170463
100.4	0.00170335
100.5	0.0017025
100.6	0.00170153
100.7	0.00169824
100.8	0.00169562
100.9	0.00169296
101	0.00169643
101.1	0.00170335
101.2	0.00171703
101.3	0.00173096
101.4	0.00174202
101.5	0.00175296
101.6	0.00176487
101.7	0.00177952
101.8	0.00179361
101.9	0.00180592
102	0.00181995
102.1	0.00183072
102.2	0.00183918
102.3	0.00185071
102.4	0.00185871
102.5	0.00186663
102.6	0.00187445
102.7	0.001881
102.8	0.00188284
102.9	0.00188463
103	0.0018848
103.1	0.00188506
103.2	0.00188718
103.3	0.00189034
103.4	0.00189455
103.5	0.00189618
103.6	0.00189829
103.7	0.00190022
103.8	0.00190376
103.9	0.00190556
104	0.00190831
104.1	0.00191098
104.2	0.00191123
104.3	0.00190586
104.4	0.00190283
104.5	0.0019033
104.6	0.00190278
104.7	0.00189541
104.8	0.00188554
104.9	0.00187326
105	0.00185864
105.1	0.00184082
105.2	0.00182187
105.3	0.00180408
105.4	0.00179176
105.5	0.00178205
105.6	0.00177495
105.7	0.00176954
105.8	0.00176524
105.9	0.00176344
106	0.00176021
106.1	0.00175778
106.2	0.0017567
106.3	0.00175431
106.4	0.00175783
106.5	0.00176685
106.6	0.00178192
106.7	0.00179927
106.8	0.00181456
106.9	0.00183358
107	0.00185295
107.1	0.00187354
107.2	0.00190144
107.3	0.0019323
107.4	0.00196233
107.5	0.00198916
107.6	0.00200949
107.7	0.00202379
107.8	0.00203239
107.9	0.00203792
108	0.00204517
108.1	0.00204963
108.2	0.00204837
108.3	0.00203976
108.4	0.00202566
108.5	0.00200911
108.6	0.00199323
108.7	0.00198137
108.8	0.00197055
108.9	0.00195215
109	0.00192968
109.1	0.00190215
109.2	0.00187124
109.3	0.0018417
109.4	0.00181276
109.5	0.00178316
109.6	0.00174852
109.7	0.00170911
109.8	0.00166846
109.9	0.00162673
110	0.00158098
110.1	0.00153225
110.2	0.00147894
110.3	0.00142806
110.4	0.00137946
110.5	0.00133188
110.6	0.00128656
110.7	0.00124275
110.8	0.00120136
110.9	0.00116498
111	0.00112965
111.1	0.00109496
111.2	0.0010616
111.3	0.00102727
111.4	0.000990323
111.5	0.000952984
111.6	0.000919346
111.7	0.000889044
111.8	0.000860881
111.9	0.000834015
112	0.000814464
112.1	0.000799415
112.2	0.000786756
112.3	0.000773673
112.4	0.000757236
112.5	0.000738714
112.6	0.000722666
112.7	0.000710294
112.8	0.000705355
112.9	0.000704643
113	0.000699144
113.1	0.000689614
113.2	0.000678987
113.3	0.000664675
113.4	0.000650307
113.5	0.000635453
113.6	0.000621052
113.7	0.000606202
113.8	0.00058863
113.9	0.000571339
114	0.000554455
114.1	0.000537328
114.2	0.000526046
114.3	0.000519079
114.4	0.000515522
114.5	0.000516266
114.6	0.000520009
114.7	0.000522013
114.8	0.000522583
114.9	0.000522423
115	0.000517754
115.1	0.000507116
115.2	0.000494293
115.3	0.000481344
115.4	0.000467534
115.5	0.000449206
115.6	0.000426248
115.7	0.000402972
115.8	0.000384434
115.9	0.000371969
116	0.000361323
116.1	0.000351288
116.2	0.000335171
116.3	0.000314916
116.4	0.00029881
116.5	0.000281708
116.6	0.000264836
116.7	0.000251637
116.8	0.000238668
116.9	0.000231378
117	0.000229258
117.1	0.000232752
117.2	0.00023667
117.3	0.000243816
117.4	0.000252322
117.5	0.000259758
117.6	0.000268256
117.7	0.000279971
117.8	0.000295646
117.9	0.000316119
118	0.0003338
118.1	0.000348096
118.2	0.000360478
118.3	0.000367883
118.4	0.000374881
118.5	0.000380873
118.6	0.000385666
118.7	0.000392567
118.8	0.000403056
118.9	0.000415593
119	0.000430767
119.1	0.000450679
119.2	0.000472488
119.3	0.000491269
119.4	0.000511318
119.5	0.000531779
119.6	0.000548005
119.7	0.000562997
119.8	0.000575863
119.9	0.000584437
120	0.000585156
120.1	0.000587697
120.2	0.000589251
120.3	0.000581789
120.4	0.000576215
120.5	0.000575123
120.6	0.000577621
120.7	0.000581371
120.8	0.000583057
120.9	0.000584119
121	0.000582319
121.1	0.000579968
121.2	0.000580395
121.3	0.000581501
121.4	0.000584294
121.5	0.000588255
121.6	0.000593539
121.7	0.000600303
121.8	0.000608345
121.9	0.000615807
122	0.000623661
122.1	0.00063563
122.2	0.000650697
122.3	0.00066905
122.4	0.000688212
122.5	0.000708107
122.6	0.000725993
122.7	0.000743049
122.8	0.000759431
122.9	0.000772876
123	0.000785742
123.1	0.00080305
123.2	0.000825732
123.3	0.0008486
123.4	0.000870175
123.5	0.000888543
123.6	0.000904001
123.7	0.000921101
123.8	0.000938225
123.9	0.000952741
124	0.00096121
124.1	0.000976367
124.2	0.000995222
124.3	0.00101962
124.4	0.00104535
124.5	0.0010689
124.6	0.00109193
124.7	0.00111559
124.8	0.00113289
124.9	0.00114317
125	0.00114664
125.1	0.0011516
125.2	0.00115646
125.3	0.0011644
125.4	0.00117086
125.5	0.00117065
125.6	0.00117014
125.7	0.00117107
125.8	0.0011761
125.9	0.0011802
126	0.00118107
126.1	0.00117878
126.2	0.00117581
126.3	0.001173
