LagTime	Correlation

0	0.673085
0.1	0.668062
0.2	0.660573
0.3	0.652539
0.4	0.644447
0.5	0.636412
0.6	0.628464
0.7	0.620608
0.8	0.612849
0.9	0.605187
1	0.597623
1.1	0.590154
1.2	0.58278
1.3	0.575498
1.4	0.568307
1.5	0.561202
1.6	0.554185
1.7	0.547254
1.8	0.540416
1.9	0.533671
2	0.527014
2.1	0.520447
2.2	0.513962
2.3	0.507551
2.4	0.50122
2.5	0.494968
2.6	0.488798
2.7	0.482708
2.8	0.476698
2.9	0.470763
3	0.464905
3.1	0.459124
3.2	0.453415
3.3	0.447771
3.4	0.442195
3.5	0.436686
3.6	0.431246
3.7	0.425874
3.8	0.42057
3.9	0.415325
4	0.410147
4.1	0.405035
4.2	0.39999
4.3	0.395008
4.4	0.390085
4.5	0.38522
4.6	0.38041
4.7	0.375656
4.8	0.370964
4.9	0.366335
5	0.361763
5.1	0.357248
5.2	0.352791
5.3	0.348389
5.4	0.344033
5.5	0.339734
5.6	0.335487
5.7	0.331296
5.8	0.327158
5.9	0.323075
6	0.319042
6.1	0.315056
6.2	0.311118
6.3	0.307225
6.4	0.303384
6.5	0.29959
6.6	0.295846
6.7	0.292148
6.8	0.288498
6.9	0.284888
7	0.281323
7.1	0.277798
7.2	0.274312
7.3	0.270867
7.4	0.267466
7.5	0.264103
7.6	0.260779
7.7	0.257494
7.8	0.254248
7.9	0.251042
8	0.247878
8.1	0.244756
8.2	0.241677
8.3	0.238637
8.4	0.235638
8.5	0.232685
8.6	0.229773
8.7	0.226896
8.8	0.224053
8.9	0.221243
9	0.218469
9.1	0.215727
9.2	0.213022
9.3	0.210356
9.4	0.207726
9.5	0.205129
9.6	0.202564
9.7	0.20003
9.8	0.19753
9.9	0.19506
10	0.192623
10.1	0.190213
10.2	0.187836
10.3	0.185488
10.4	0.183174
10.5	0.18089
10.6	0.178632
10.7	0.176401
10.8	0.174192
10.9	0.172009
11	0.169848
11.1	0.167715
11.2	0.165605
11.3	0.163518
11.4	0.161452
11.5	0.159414
11.6	0.157402
11.7	0.155417
11.8	0.153456
11.9	0.15152
12	0.149611
12.1	0.147726
12.2	0.145862
12.3	0.144017
12.4	0.142196
12.5	0.140399
12.6	0.138628
12.7	0.136882
12.8	0.135157
12.9	0.133455
13	0.131775
13.1	0.130114
13.2	0.12847
13.3	0.126848
13.4	0.125246
13.5	0.123665
13.6	0.122101
13.7	0.120557
13.8	0.119031
13.9	0.117522
14	0.116033
14.1	0.114564
14.2	0.113118
14.3	0.111693
14.4	0.110282
14.5	0.108888
14.6	0.107512
14.7	0.10615
14.8	0.1048
14.9	0.10346
15	0.102133
15.1	0.100822
15.2	0.0995309
15.3	0.0982596
15.4	0.0970065
15.5	0.0957667
15.6	0.0945413
15.7	0.0933282
15.8	0.0921233
15.9	0.0909344
16	0.0897621
16.1	0.0886064
16.2	0.0874639
16.3	0.0863348
16.4	0.0852252
16.5	0.0841287
16.6	0.0830499
16.7	0.0819873
16.8	0.080942
16.9	0.0799066
17	0.0788812
17.1	0.0778696
17.2	0.0768684
17.3	0.0758816
17.4	0.0749064
17.5	0.073943
17.6	0.0729925
17.7	0.0720504
17.8	0.0711178
17.9	0.0701941
18	0.0692791
18.1	0.0683711
18.2	0.067471
18.3	0.0665821
18.4	0.065703
18.5	0.0648334
18.6	0.0639792
18.7	0.0631404
18.8	0.0623131
18.9	0.0614991
19	0.0606994
19.1	0.059914
19.2	0.0591423
19.3	0.0583874
19.4	0.0576491
19.5	0.0569228
19.6	0.0562074
19.7	0.0554994
19.8	0.0547953
19.9	0.0540958
20	0.0534059
20.1	0.0527241
20.2	0.0520492
20.3	0.051386
20.4	0.0507363
20.5	0.0500968
20.6	0.0494654
20.7	0.0488394
20.8	0.0482183
20.9	0.0476004
21	0.0469867
21.1	0.0463802
21.2	0.0457812
21.3	0.0451937
21.4	0.0446176
21.5	0.0440507
21.6	0.0434943
21.7	0.0429515
21.8	0.0424206
21.9	0.0419018
22	0.0413921
22.1	0.0408856
22.2	0.0403893
22.3	0.0399012
22.4	0.0394176
22.5	0.038942
22.6	0.0384757
22.7	0.0380166
22.8	0.0375644
22.9	0.0371189
23	0.036681
23.1	0.0362483
23.2	0.035823
23.3	0.0354036
23.4	0.0349927
23.5	0.0345915
23.6	0.0342
23.7	0.0338108
23.8	0.0334196
23.9	0.0330284
24	0.0326394
24.1	0.0322547
24.2	0.0318781
24.3	0.0315056
24.4	0.0311335
24.5	0.030765
24.6	0.0304052
24.7	0.0300443
24.8	0.0296872
24.9	0.0293307
25	0.0289753
25.1	0.0286211
25.2	0.0282709
25.3	0.0279268
25.4	0.0275896
25.5	0.0272638
25.6	0.0269437
25.7	0.0266271
25.8	0.0263139
25.9	0.026003
26	0.0256897
26.1	0.0253771
26.2	0.0250681
26.3	0.024763
26.4	0.0244643
26.5	0.0241771
26.6	0.0238997
26.7	0.0236303
26.8	0.0233595
26.9	0.0230923
27	0.0228335
27.1	0.0225832
27.2	0.0223395
27.3	0.022102
27.4	0.0218704
27.5	0.0216425
27.6	0.0214192
27.7	0.0211975
27.8	0.0209812
27.9	0.0207719
28	0.0205632
28.1	0.0203564
28.2	0.0201492
28.3	0.0199389
28.4	0.0197292
28.5	0.019523
28.6	0.0193164
28.7	0.0191113
28.8	0.0189127
28.9	0.0187169
29	0.0185252
29.1	0.0183362
29.2	0.0181439
29.3	0.017946
29.4	0.0177414
29.5	0.0175369
29.6	0.0173279
29.7	0.0171198
29.8	0.0169135
29.9	0.0167117
30	0.016512
30.1	0.0163154
30.2	0.0161225
30.3	0.01593
30.4	0.0157419
30.5	0.0155529
30.6	0.0153638
30.7	0.0151701
30.8	0.0149703
30.9	0.0147668
31	0.0145655
31.1	0.0143675
31.2	0.0141728
31.3	0.0139825
31.4	0.0137986
31.5	0.0136228
31.6	0.0134497
31.7	0.0132774
31.8	0.0131056
31.9	0.0129345
32	0.0127626
32.1	0.0125957
32.2	0.0124392
32.3	0.0122891
32.4	0.0121426
32.5	0.0120007
32.6	0.0118652
32.7	0.0117324
32.8	0.0116
32.9	0.0114671
33	0.0113304
33.1	0.0111982
33.2	0.0110631
33.3	0.0109277
33.4	0.0107941
33.5	0.0106648
33.6	0.010533
33.7	0.0104003
33.8	0.0102639
33.9	0.0101295
34	0.00999527
34.1	0.00986377
34.2	0.0097332
34.3	0.00960569
34.4	0.00948294
34.5	0.00936504
34.6	0.00925254
34.7	0.0091431
34.8	0.0090416
34.9	0.0089529
35	0.00886344
35.1	0.00877468
35.2	0.00868866
35.3	0.00860258
35.4	0.00851769
35.5	0.00843217
35.6	0.00835048
35.7	0.00826556
35.8	0.00817603
35.9	0.0080849
36	0.00800077
36.1	0.00791778
36.2	0.00783241
36.3	0.00774167
36.4	0.00765294
36.5	0.00756346
36.6	0.00747682
36.7	0.00739511
36.8	0.00731828
36.9	0.00724902
37	0.0071835
37.1	0.00711806
37.2	0.00705755
37.3	0.00699736
37.4	0.00693648
37.5	0.0068782
37.6	0.00681905
37.7	0.00675856
37.8	0.00669578
37.9	0.00662822
38	0.00656035
38.1	0.00649463
38.2	0.00642658
38.3	0.00635581
38.4	0.00628367
38.5	0.00620849
38.6	0.00613206
38.7	0.00605644
38.8	0.00598273
38.9	0.00590642
39	0.00582646
39.1	0.0057467
39.2	0.00567099
39.3	0.00559414
39.4	0.00551732
39.5	0.00543624
39.6	0.00534714
39.7	0.00525377
39.8	0.00515558
39.9	0.00505334
40	0.00494779
40.1	0.00484523
40.2	0.00474544
40.3	0.00464668
40.4	0.00454546
40.5	0.00444673
40.6	0.00434909
40.7	0.00425662
40.8	0.00416616
40.9	0.00408327
41	0.00400303
41.1	0.00392267
41.2	0.00384274
41.3	0.00376545
41.4	0.00368888
41.5	0.00361313
41.6	0.00354079
41.7	0.00347162
41.8	0.0034067
41.9	0.00334564
42	0.00328811
42.1	0.00323612
42.2	0.00318645
42.3	0.0031395
42.4	0.00309509
42.5	0.00305125
42.6	0.00300871
42.7	0.00296179
42.8	0.00291291
42.9	0.00286304
43	0.00281258
43.1	0.00276453
43.2	0.00272293
43.3	0.00268378
43.4	0.00264503
43.5	0.00260792
43.6	0.00257745
43.7	0.0025549
43.8	0.00253869
43.9	0.00252485
44	0.00250952
44.1	0.00249229
44.2	0.00247431
44.3	0.00245337
44.4	0.00242833
44.5	0.00239708
44.6	0.00236392
44.7	0.00233514
44.8	0.00231092
44.9	0.00229271
45	0.00227689
45.1	0.00226024
45.2	0.00224489
45.3	0.00222824
45.4	0.00221158
45.5	0.00219466
45.6	0.00217844
45.7	0.00216161
45.8	0.00214894
45.9	0.00214076
46	0.00213952
46.1	0.00214043
46.2	0.00213911
46.3	0.00213675
46.4	0.00213
46.5	0.0021216
46.6	0.00211237
46.7	0.00211171
46.8	0.00211295
46.9	0.00211511
47	0.00212086
47.1	0.00212516
47.2	0.00213422
47.3	0.0021439
47.4	0.002151
47.5	0.00216195
47.6	0.00217149
47.7	0.00218006
47.8	0.00218921
47.9	0.0021961
48	0.00220373
48.1	0.00221208
48.2	0.00222175
48.3	0.00223182
48.4	0.00224322
48.5	0.00225858
48.6	0.00227205
48.7	0.00228511
48.8	0.00229131
48.9	0.00229435
49	0.00229883
49.1	0.00230291
49.2	0.0023032
49.3	0.00230011
49.4	0.00229088
49.5	0.00228163
49.6	0.00227455
49.7	0.00226901
49.8	0.00226305
49.9	0.00225971
50	0.00225834
50.1	0.00226154
50.2	0.00226897
50.3	0.00227753
50.4	0.00228485
50.5	0.00229273
50.6	0.00230053
50.7	0.00230972
50.8	0.00232059
50.9	0.00233588
51	0.00235492
51.1	0.00236915
51.2	0.00238291
51.3	0.00239303
51.4	0.0024017
51.5	0.00240544
51.6	0.0024074
51.7	0.00240659
51.8	0.00240544
51.9	0.00240204
52	0.00239786
52.1	0.00239661
52.2	0.00239644
52.3	0.00239445
52.4	0.00239131
52.5	0.00238492
52.6	0.00237782
52.7	0.00237329
52.8	0.00236884
52.9	0.00236069
53	0.00234465
53.1	0.00232205
53.2	0.00229679
53.3	0.00226803
53.4	0.00224178
53.5	0.00222181
53.6	0.00220603
53.7	0.00219599
53.8	0.00218911
53.9	0.00218277
54	0.00217421
54.1	0.0021619
54.2	0.00214567
54.3	0.00212979
54.4	0.0021116
54.5	0.00209409
54.6	0.00207115
54.7	0.00204551
54.8	0.00201925
54.9	0.0019969
55	0.0019764
55.1	0.00195347
55.2	0.00192804
55.3	0.00190057
55.4	0.00187141
55.5	0.00183902
55.6	0.00180387
55.7	0.00176626
55.8	0.00173008
55.9	0.00169097
56	0.00164457
56.1	0.00159278
56.2	0.00153662
56.3	0.00148138
56.4	0.0014308
56.5	0.00138571
56.6	0.0013425
56.7	0.00130211
56.8	0.00126218
56.9	0.00122212
57	0.00118397
57.1	0.00114826
57.2	0.00111258
57.3	0.00107426
57.4	0.0010337
57.5	0.00099128
57.6	0.000952326
57.7	0.000918228
57.8	0.000885003
57.9	0.000855986
58	0.000825931
58.1	0.000793787
58.2	0.000764053
58.3	0.000739482
58.4	0.000717117
58.5	0.000698756
58.6	0.000678928
58.7	0.000659555
58.8	0.000637469
58.9	0.000617367
59	0.000597833
59.1	0.000576321
59.2	0.000552906
59.3	0.000527519
59.4	0.000499632
59.5	0.000473366
59.6	0.000446076
59.7	0.000422186
59.8	0.000404022
59.9	0.000384289
60	0.000367422
60.1	0.000355794
60.2	0.000343444
60.3	0.000329879
60.4	0.000315565
60.5	0.000304298
60.6	0.000292209
60.7	0.000278846
60.8	0.000264011
60.9	0.000247565
61	0.000230504
61.1	0.000214283
61.2	0.000194811
61.3	0.000175138
61.4	0.000158561
61.5	0.000138988
61.6	0.000116989
61.7	8.9921e-05
61.8	6.22189e-05
61.9	3.56075e-05
62	1.22307e-05
62.1	-7.82472e-06
62.2	-2.47733e-05
62.3	-3.74926e-05
62.4	-4.64191e-05
62.5	-5.08322e-05
62.6	-5.62002e-05
62.7	-6.45572e-05
62.8	-7.52698e-05
62.9	-8.16809e-05
63	-8.70706e-05
63.1	-9.01364e-05
63.2	-9.37315e-05
63.3	-9.56507e-05
63.4	-9.80275e-05
63.5	-0.000100985
63.6	-0.000101945
63.7	-0.000101663
63.8	-9.87148e-05
63.9	-9.72078e-05
64	-9.83392e-05
64.1	-0.000100856
64.2	-0.000107359
64.3	-0.000116455
64.4	-0.000129335
64.5	-0.000147016
64.6	-0.000166162
64.7	-0.000184343
64.8	-0.000198681
64.9	-0.00020832
65	-0.000217512
65.1	-0.000229054
65.2	-0.000243473
65.3	-0.000263793
65.4	-0.000282891
65.5	-0.000299001
65.6	-0.00031202
65.7	-0.000323346
65.8	-0.000333552
65.9	-0.000336681
66	-0.000335732
66.1	-0.000337475
66.2	-0.000341353
66.3	-0.000349206
66.4	-0.000358399
66.5	-0.000369458
66.6	-0.000381768
66.7	-0.000396477
66.8	-0.000410588
66.9	-0.000425056
67	-0.000441459
67.1	-0.000457643
67.2	-0.000475434
67.3	-0.000494822
67.4	-0.000511316
67.5	-0.000525714
67.6	-0.000545443
67.7	-0.000571641
67.8	-0.000601411
67.9	-0.000629059
68	-0.000655455
68.1	-0.000681599
68.2	-0.000712302
68.3	-0.000745445
68.4	-0.000778557
68.5	-0.000809694
68.6	-0.000836803
68.7	-0.00086116
68.8	-0.000885359
68.9	-0.000906531
69	-0.000921236
69.1	-0.000932267
69.2	-0.000940678
69.3	-0.000937748
69.4	-0.000932433
69.5	-0.000928626
69.6	-0.000922927
69.7	-0.000915227
69.8	-0.000905157
69.9	-0.000894316
70	-0.000879598
70.1	-0.000864852
70.2	-0.000849141
70.3	-0.000839007
70.4	-0.0008344
70.5	-0.000832687
70.6	-0.000830858
70.7	-0.000826656
70.8	-0.000822027
70.9	-0.00081884
71	-0.000816937
71.1	-0.000811909
71.2	-0.000800189
71.3	-0.000788842
71.4	-0.000779351
71.5	-0.000772514
71.6	-0.000770936
71.7	-0.000769424
71.8	-0.000764608
71.9	-0.000759858
72	-0.000751861
72.1	-0.000741447
72.2	-0.000733002
72.3	-0.00072349
72.4	-0.000714336
72.5	-0.00070887
72.6	-0.000707853
72.7	-0.000705894
72.8	-0.000704184
72.9	-0.000707546
73	-0.000711605
73.1	-0.00071642
73.2	-0.000723707
73.3	-0.000731757
73.4	-0.000743012
73.5	-0.000755819
73.6	-0.000769447
73.7	-0.000780891
73.8	-0.000790643
73.9	-0.000795073
74	-0.000794392
74.1	-0.000792054
74.2	-0.000787176
74.3	-0.000778103
74.4	-0.000767178
74.5	-0.000755685
74.6	-0.0007438
74.7	-0.000730833
74.8	-0.000719226
74.9	-0.000711176
75	-0.000707197
75.1	-0.000705047
75.2	-0.00070312
75.3	-0.00069803
75.4	-0.000689603
75.5	-0.000681417
75.6	-0.000673496
75.7	-0.00066943
75.8	-0.000668355
75.9	-0.000669762
76	-0.000668742
76.1	-0.000667871
76.2	-0.000670654
76.3	-0.000675475
76.4	-0.000682952
76.5	-0.000687728
76.6	-0.000691366
76.7	-0.000696674
76.8	-0.000706679
76.9	-0.00071528
77	-0.00071968
77.1	-0.000718534
77.2	-0.000710484
77.3	-0.000698603
77.4	-0.000688414
77.5	-0.000676851
77.6	-0.00066283
77.7	-0.00064545
77.8	-0.000631908
77.9	-0.00062407
78	-0.000620142
78.1	-0.000621249
78.2	-0.000616775
78.3	-0.000610981
78.4	-0.000601245
78.5	-0.000590901
78.6	-0.000581527
78.7	-0.000569976
78.8	-0.000560897
78.9	-0.000554291
79	-0.000550122
79.1	-0.000550648
79.2	-0.000550454
79.3	-0.000546413
79.4	-0.000535369
79.5	-0.000522762
79.6	-0.000508592
79.7	-0.000492452
79.8	-0.000473933
79.9	-0.000456903
80	-0.00044238
80.1	-0.000432399
80.2	-0.000422188
80.3	-0.00041001
80.4	-0.000399976
80.5	-0.000393375
80.6	-0.000384155
80.7	-0.000370252
80.8	-0.000352714
80.9	-0.00033499
81	-0.000316819
81.1	-0.000299731
81.2	-0.000287622
81.3	-0.000275596
81.4	-0.00026857
81.5	-0.000268554
81.6	-0.000272164
81.7	-0.000280846
81.8	-0.000283999
81.9	-0.000286012
82	-0.000286794
82.1	-0.000292401
82.2	-0.000298075
82.3	-0.000301455
82.4	-0.000300913
82.5	-0.000297802
82.6	-0.000291777
82.7	-0.000286308
82.8	-0.000281004
82.9	-0.000276407
83	-0.000272086
83.1	-0.000265649
83.2	-0.000260853
83.3	-0.00025188
83.4	-0.000245043
83.5	-0.000241918
83.6	-0.00024286
83.7	-0.000240897
83.8	-0.000240543
83.9	-0.00024521
84	-0.000251227
84.1	-0.000252184
84.2	-0.000249609
84.3	-0.000237267
84.4	-0.000220009
84.5	-0.000198324
84.6	-0.000178459
84.7	-0.000163514
84.8	-0.000155592
84.9	-0.000151265
85	-0.000147406
85.1	-0.000144839
85.2	-0.000149346
85.3	-0.000154791
85.4	-0.000163575
85.5	-0.000174018
85.6	-0.000188952
85.7	-0.000205954
85.8	-0.000230489
85.9	-0.000253763
86	-0.000278729
86.1	-0.000305054
86.2	-0.00032738
86.3	-0.000345573
86.4	-0.000362859
86.5	-0.00038128
86.6	-0.000398888
86.7	-0.000415775
86.8	-0.000432319
86.9	-0.000446009
87	-0.000453333
87.1	-0.000455345
87.2	-0.000453341
87.3	-0.000447906
87.4	-0.000440586
87.5	-0.000435065
87.6	-0.000431656
87.7	-0.000426608
87.8	-0.000423758
87.9	-0.000424671
88	-0.000428963
88.1	-0.000435076
88.2	-0.000438765
88.3	-0.000441383
88.4	-0.000444594
88.5	-0.000444376
88.6	-0.000438546
88.7	-0.00043551
88.8	-0.00043628
88.9	-0.000435204
89	-0.000432913
89.1	-0.000429422
89.2	-0.000424918
89.3	-0.000418901
89.4	-0.000413623
89.5	-0.000410721
89.6	-0.000410051
89.7	-0.00040606
89.8	-0.000403043
89.9	-0.000403461
90	-0.000403494
90.1	-0.00040373
90.2	-0.000402149
90.3	-0.000400133
90.4	-0.000401093
90.5	-0.000394905
90.6	-0.000383884
90.7	-0.000365613
90.8	-0.000346076
90.9	-0.000326204
91	-0.000310368
91.1	-0.000296582
91.2	-0.000279853
91.3	-0.000263954
91.4	-0.000252667
91.5	-0.000242404
91.6	-0.000232148
91.7	-0.000226052
91.8	-0.000220286
91.9	-0.000216195
92	-0.00021669
92.1	-0.000221879
92.2	-0.000227663
92.3	-0.000235327
92.4	-0.000246166
92.5	-0.000258809
92.6	-0.000274096
92.7	-0.000292225
92.8	-0.000313234
92.9	-0.000338189
93	-0.000367558
93.1	-0.000396948
93.2	-0.000428608
93.3	-0.000460227
93.4	-0.000490058
93.5	-0.000516368
93.6	-0.000540143
93.7	-0.000566181
93.8	-0.00059765
93.9	-0.000625567
94	-0.000654015
94.1	-0.000681104
94.2	-0.000709095
94.3	-0.000737896
94.4	-0.000769062
94.5	-0.000803319
94.6	-0.000840252
94.7	-0.000880129
94.8	-0.000922289
94.9	-0.000965335
95	-0.00101087
95.1	-0.00105278
95.2	-0.00109322
95.3	-0.00113339
95.4	-0.0011773
95.5	-0.00122423
95.6	-0.00126916
95.7	-0.0013143
95.8	-0.0013568
95.9	-0.00139845
96	-0.00144058
96.1	-0.00148608
96.2	-0.00152865
96.3	-0.00156768
96.4	-0.00160394
96.5	-0.00163651
96.6	-0.00166512
96.7	-0.00169559
96.8	-0.00172889
96.9	-0.00176198
97	-0.00179028
97.1	-0.00181425
97.2	-0.00183418
97.3	-0.0018529
97.4	-0.00186792
97.5	-0.00188433
97.6	-0.00190103
97.7	-0.00191338
97.8	-0.00191958
97.9	-0.00192719
98	-0.00193178
98.1	-0.00193666
98.2	-0.00194352
98.3	-0.00194684
98.4	-0.00194683
98.5	-0.00194567
98.6	-0.00194
98.7	-0.00193256
98.8	-0.00192428
98.9	-0.001918
99	-0.00191275
99.1	-0.00190906
99.2	-0.00189905
99.3	-0.00188767
99.4	-0.00187536
99.5	-0.00186098
99.6	-0.00184346
99.7	-0.0018237
99.8	-0.00180078
99.9	-0.00177487
100	-0.00174653
100.1	-0.00171941
100.2	-0.00168804
100.3	-0.00165259
100.4	-0.00161433
100.5	-0.00157216
100.6	-0.00153103
100.7	-0.0014932
100.8	-0.00145535
100.9	-0.00141999
101	-0.00138529
101.1	-0.00134818
101.2	-0.0013084
101.3	-0.00126973
101.4	-0.00123234
101.5	-0.00119534
101.6	-0.001159
101.7	-0.00111955
101.8	-0.00107679
101.9	-0.00103439
102	-0.00099329
102.1	-0.000953635
102.2	-0.000915473
102.3	-0.000879635
102.4	-0.000840715
102.5	-0.000797909
102.6	-0.000754673
102.7	-0.000708103
102.8	-0.000665231
102.9	-0.000627548
103	-0.000594828
103.1	-0.000562577
103.2	-0.000528639
103.3	-0.000491821
103.4	-0.00045495
103.5	-0.000420614
103.6	-0.000383812
103.7	-0.00033995
103.8	-0.000292919
103.9	-0.000243801
104	-0.000196394
104.1	-0.000149594
104.2	-0.000103446
104.3	-5.77614e-05
104.4	-1.16013e-05
104.5	2.98644e-05
104.6	7.19159e-05
104.7	0.00011301
104.8	0.000154661
104.9	0.000191429
105	0.000231429
105.1	0.000270183
105.2	0.000304277
105.3	0.0003388
105.4	0.000369476
105.5	0.0003996
105.6	0.000430699
105.7	0.000460695
105.8	0.00048852
105.9	0.00051335
106	0.000533984
106.1	0.000553314
106.2	0.000567757
106.3	0.000576578
106.4	0.000582316
106.5	0.000586556
106.6	0.000591443
106.7	0.00059564
106.8	0.000596665
106.9	0.000591508
107	0.000585919
107.1	0.000579711
107.2	0.000571013
107.3	0.000565173
107.4	0.000561643
107.5	0.000555676
107.6	0.000551222
107.7	0.000549973
107.8	0.000547944
107.9	0.000542541
108	0.000535529
108.1	0.000522188
108.2	0.000506201
108.3	0.000488098
108.4	0.000466877
108.5	0.000448147
108.6	0.000428045
108.7	0.000409257
108.8	0.000394406
108.9	0.000383593
109	0.000374223
109.1	0.000367148
109.2	0.000359867
109.3	0.000352325
109.4	0.000343408
109.5	0.000329335
109.6	0.000315938
109.7	0.000297373
109.8	0.000279982
109.9	0.000260162
110	0.000239364
110.1	0.000214681
110.2	0.000187824
110.3	0.000160889
110.4	0.0001351
110.5	0.000108381
110.6	7.99019e-05
110.7	4.78476e-05
110.8	1.64401e-05
110.9	-1.3509e-05
111	-3.86344e-05
111.1	-6.3888e-05
111.2	-8.95594e-05
111.3	-0.000112784
111.4	-0.000134191
111.5	-0.000151851
111.6	-0.000172223
111.7	-0.000202499
111.8	-0.000234969
111.9	-0.000263325
112	-0.000290036
112.1	-0.000312516
112.2	-0.000329072
112.3	-0.000341943
112.4	-0.000348258
112.5	-0.000356399
112.6	-0.000362051
112.7	-0.000364058
112.8	-0.000363935
112.9	-0.000361306
113	-0.000355066
113.1	-0.000346175
113.2	-0.00033646
113.3	-0.000326226
113.4	-0.000313829
113.5	-0.00030291
113.6	-0.000288561
113.7	-0.000272683
113.8	-0.000257827
113.9	-0.000237534
114	-0.000213052
114.1	-0.000183287
114.2	-0.000156117
114.3	-0.000132898
114.4	-0.000114437
114.5	-9.73591e-05
114.6	-8.10643e-05
114.7	-7.22608e-05
114.8	-6.28224e-05
114.9	-5.25552e-05
115	-4.2022e-05
115.1	-3.03832e-05
115.2	-1.83812e-05
115.3	-9.05456e-06
115.4	-2.24545e-06
115.5	4.77143e-06
115.6	1.25295e-05
115.7	1.78205e-05
115.8	2.30754e-05
115.9	3.16684e-05
116	4.85282e-05
116.1	6.38561e-05
116.2	7.9597e-05
116.3	9.288e-05
116.4	9.99354e-05
116.5	0.000104312
116.6	0.000111164
116.7	0.000115527
116.8	0.000116308
116.9	0.000114918
117	0.000114302
117.1	0.00011392
117.2	0.000118438
117.3	0.000126844
117.4	0.000136024
117.5	0.000140624
117.6	0.000141724
117.7	0.000138845
117.8	0.000132252
117.9	0.000122974
118	0.00010927
118.1	0.000100583
118.2	9.66328e-05
118.3	9.76734e-05
118.4	9.74391e-05
118.5	0.000100247
118.6	0.000101071
118.7	0.000100228
118.8	9.22955e-05
118.9	8.16859e-05
119	7.27421e-05
119.1	6.88833e-05
119.2	6.63503e-05
119.3	6.65689e-05
119.4	6.56992e-05
119.5	6.5557e-05
119.6	6.58691e-05
119.7	6.54165e-05
119.8	6.31074e-05
119.9	6.01509e-05
120	5.5831e-05
120.1	5.03918e-05
120.2	5.12928e-05
120.3	5.44996e-05
120.4	5.55043e-05
120.5	5.41946e-05
120.6	5.47988e-05
120.7	5.82455e-05
120.8	5.90055e-05
120.9	5.34677e-05
121	4.7676e-05
121.1	4.27744e-05
121.2	4.00244e-05
121.3	3.75825e-05
121.4	3.71897e-05
121.5	3.74331e-05
121.6	3.6361e-05
121.7	3.32507e-05
121.8	2.74685e-05
121.9	1.92022e-05
122	9.61918e-06
122.1	-3.48378e-06
122.2	-1.79458e-05
122.3	-3.3632e-05
122.4	-5.19062e-05
122.5	-6.2035e-05
122.6	-6.75404e-05
122.7	-6.83936e-05
122.8	-6.48476e-05
