LagTime	Correlation

0	0.669417
0.1	0.664398
0.2	0.656918
0.3	0.648896
0.4	0.640807
0.5	0.632774
0.6	0.624828
0.7	0.616972
0.8	0.609208
0.9	0.601536
1	0.593956
1.1	0.586467
1.2	0.579076
1.3	0.571776
1.4	0.564567
1.5	0.557453
1.6	0.550432
1.7	0.5435
1.8	0.536657
1.9	0.529897
2	0.523223
2.1	0.51663
2.2	0.510116
2.3	0.503685
2.4	0.497338
2.5	0.491071
2.6	0.484882
2.7	0.478771
2.8	0.472735
2.9	0.466778
3	0.460889
3.1	0.455071
3.2	0.449326
3.3	0.443656
3.4	0.438054
3.5	0.43252
3.6	0.427056
3.7	0.421664
3.8	0.416343
3.9	0.411088
4	0.4059
4.1	0.400779
4.2	0.39572
4.3	0.390723
4.4	0.385795
4.5	0.380936
4.6	0.376144
4.7	0.371412
4.8	0.366737
4.9	0.362119
5	0.35756
5.1	0.353052
5.2	0.348596
5.3	0.344193
5.4	0.339845
5.5	0.33555
5.6	0.331315
5.7	0.327137
5.8	0.323008
5.9	0.31893
6	0.314894
6.1	0.310904
6.2	0.306963
6.3	0.303072
6.4	0.299228
6.5	0.295431
6.6	0.291681
6.7	0.287972
6.8	0.284305
6.9	0.280683
7	0.277107
7.1	0.273583
7.2	0.27011
7.3	0.266683
7.4	0.263297
7.5	0.25995
7.6	0.256643
7.7	0.253378
7.8	0.250156
7.9	0.246975
8	0.243832
8.1	0.240724
8.2	0.237656
8.3	0.234628
8.4	0.231638
8.5	0.228688
8.6	0.225774
8.7	0.222896
8.8	0.220055
8.9	0.217257
9	0.214495
9.1	0.211768
9.2	0.209076
9.3	0.206419
9.4	0.203793
9.5	0.201197
9.6	0.198634
9.7	0.196107
9.8	0.193615
9.9	0.191152
10	0.188716
10.1	0.186307
10.2	0.183926
10.3	0.181577
10.4	0.179263
10.5	0.176977
10.6	0.174721
10.7	0.172495
10.8	0.170295
10.9	0.168125
11	0.165984
11.1	0.163874
11.2	0.161795
11.3	0.159746
11.4	0.157722
11.5	0.155725
11.6	0.153749
11.7	0.151794
11.8	0.149869
11.9	0.147966
12	0.146083
12.1	0.144217
12.2	0.142368
12.3	0.140539
12.4	0.138734
12.5	0.13695
12.6	0.135187
12.7	0.133447
12.8	0.131728
12.9	0.130033
13	0.128362
13.1	0.126713
13.2	0.125083
13.3	0.123474
13.4	0.12189
13.5	0.120332
13.6	0.118795
13.7	0.11728
13.8	0.115782
13.9	0.114307
14	0.112852
14.1	0.111411
14.2	0.109986
14.3	0.108575
14.4	0.107185
14.5	0.105815
14.6	0.104466
14.7	0.103133
14.8	0.101822
14.9	0.100532
15	0.099256
15.1	0.0979919
15.2	0.0967437
15.3	0.0955169
15.4	0.0943088
15.5	0.0931148
15.6	0.0919371
15.7	0.0907744
15.8	0.0896228
15.9	0.0884859
16	0.0873605
16.1	0.086254
16.2	0.0851619
16.3	0.0840801
16.4	0.083011
16.5	0.0819515
16.6	0.0809044
16.7	0.0798669
16.8	0.0788371
16.9	0.0778187
17	0.0768112
17.1	0.0758125
17.2	0.074826
17.3	0.0738551
17.4	0.0729009
17.5	0.0719644
17.6	0.071042
17.7	0.0701259
17.8	0.0692143
17.9	0.0683116
18	0.0674227
18.1	0.066547
18.2	0.0656822
18.3	0.0648248
18.4	0.0639743
18.5	0.0631353
18.6	0.0623108
18.7	0.061503
18.8	0.060711
18.9	0.0599318
19	0.0591614
19.1	0.0583996
19.2	0.057645
19.3	0.0568993
19.4	0.0561618
19.5	0.055431
19.6	0.0547074
19.7	0.0539953
19.8	0.0532897
19.9	0.0525932
20	0.0519069
20.1	0.051227
20.2	0.0505547
20.3	0.0498885
20.4	0.0492348
20.5	0.0485894
20.6	0.0479525
20.7	0.0473217
20.8	0.0466959
20.9	0.0460795
21	0.0454724
21.1	0.04487
21.2	0.0442766
21.3	0.0436914
21.4	0.0431152
21.5	0.0425446
21.6	0.0419752
21.7	0.0414039
21.8	0.0408311
21.9	0.0402614
22	0.0396972
22.1	0.0391384
22.2	0.0385842
22.3	0.038035
22.4	0.0374908
22.5	0.0369524
22.6	0.0364229
22.7	0.0359
22.8	0.0353818
22.9	0.034871
23	0.0343692
23.1	0.0338744
23.2	0.033382
23.3	0.0328891
23.4	0.0323991
23.5	0.0319158
23.6	0.0314388
23.7	0.0309698
23.8	0.0305071
23.9	0.0300459
24	0.0295878
24.1	0.0291371
24.2	0.0287001
24.3	0.0282714
24.4	0.0278494
24.5	0.0274379
24.6	0.0270345
24.7	0.026643
24.8	0.0262619
24.9	0.0258874
25	0.0255189
25.1	0.0251553
25.2	0.0247998
25.3	0.0244517
25.4	0.0241041
25.5	0.0237536
25.6	0.0234015
25.7	0.0230526
25.8	0.0227078
25.9	0.0223656
26	0.0220331
26.1	0.0217072
26.2	0.0213898
26.3	0.021079
26.4	0.0207715
26.5	0.02046
26.6	0.0201488
26.7	0.0198391
26.8	0.0195367
26.9	0.0192388
27	0.0189492
27.1	0.0186663
27.2	0.0183854
27.3	0.0181056
27.4	0.01783
27.5	0.0175641
27.6	0.017306
27.7	0.0170527
27.8	0.0168021
27.9	0.0165549
28	0.0163128
28.1	0.0160713
28.2	0.0158364
28.3	0.0156084
28.4	0.0153805
28.5	0.0151567
28.6	0.0149328
28.7	0.0147147
28.8	0.0145036
28.9	0.0143
29	0.014101
29.1	0.0139097
29.2	0.0137229
29.3	0.0135359
29.4	0.0133497
29.5	0.0131617
29.6	0.0129717
29.7	0.012782
29.8	0.0125923
29.9	0.0124077
30	0.012226
30.1	0.0120492
30.2	0.0118736
30.3	0.0117003
30.4	0.0115338
30.5	0.0113719
30.6	0.0112122
30.7	0.0110527
30.8	0.0108966
30.9	0.0107395
31	0.010585
31.1	0.0104314
31.2	0.0102763
31.3	0.0101224
31.4	0.00996886
31.5	0.00981977
31.6	0.0096773
31.7	0.00953994
31.8	0.00940423
31.9	0.00927241
32	0.0091429
32.1	0.00901852
32.2	0.00889441
32.3	0.00877466
32.4	0.00865787
32.5	0.00854431
32.6	0.00843166
32.7	0.00831956
32.8	0.00821048
32.9	0.00809951
33	0.00798452
33.1	0.0078678
33.2	0.0077515
33.3	0.00764224
33.4	0.00754001
33.5	0.00744354
33.6	0.00735372
33.7	0.0072678
33.8	0.00718172
33.9	0.00709418
34	0.00700616
34.1	0.00691892
34.2	0.00682979
34.3	0.00673567
34.4	0.00663933
34.5	0.00654349
34.6	0.00644827
34.7	0.00635035
34.8	0.00625183
34.9	0.00615088
35	0.00605744
35.1	0.00596847
35.2	0.00588148
35.3	0.00579709
35.4	0.00571652
35.5	0.00563744
35.6	0.00555658
35.7	0.00547319
35.8	0.00538835
35.9	0.0053039
36	0.00522117
36.1	0.00513583
36.2	0.00505277
36.3	0.00497256
36.4	0.00489416
36.5	0.00481608
36.6	0.00474206
36.7	0.00467662
36.8	0.00461244
36.9	0.00454672
37	0.0044806
37.1	0.00441343
37.2	0.00434416
37.3	0.00427822
37.4	0.0042092
37.5	0.00413717
37.6	0.00406254
37.7	0.00398124
37.8	0.00389701
37.9	0.0038127
38	0.00372341
38.1	0.00363374
38.2	0.00354433
38.3	0.00345331
38.4	0.00336187
38.5	0.00326964
38.6	0.00317102
38.7	0.00307404
38.8	0.00298624
38.9	0.00290072
39	0.00281275
39.1	0.0027259
39.2	0.00264196
39.3	0.00255874
39.4	0.00247246
39.5	0.00238355
39.6	0.00229436
39.7	0.00220658
39.8	0.00211618
39.9	0.00202788
40	0.00194267
40.1	0.0018578
40.2	0.00177254
40.3	0.00168454
40.4	0.00160097
40.5	0.00152513
40.6	0.0014517
40.7	0.001379
40.8	0.00130493
40.9	0.00123354
41	0.00115992
41.1	0.0010893
41.2	0.00101827
41.3	0.000944858
41.4	0.000875043
41.5	0.000813024
41.6	0.000754399
41.7	0.000695652
41.8	0.000639483
41.9	0.000584211
42	0.000527848
42.1	0.000473958
42.2	0.000420756
42.3	0.000368052
42.4	0.000313603
42.5	0.000256078
42.6	0.00019275
42.7	0.000132294
42.8	7.12455e-05
42.9	7.43448e-06
43	-5.28078e-05
43.1	-0.000108707
43.2	-0.000162412
43.3	-0.000214429
43.4	-0.00026409
43.5	-0.00031142
43.6	-0.000357775
43.7	-0.000404131
43.8	-0.000452013
43.9	-0.000499223
44	-0.000551589
44.1	-0.000606561
44.2	-0.000660828
44.3	-0.000713503
44.4	-0.000760485
44.5	-0.000806162
44.6	-0.00085113
44.7	-0.000894485
44.8	-0.000934496
44.9	-0.000973823
45	-0.00101266
45.1	-0.001053
45.2	-0.00109516
45.3	-0.00114212
45.4	-0.00118996
45.5	-0.00123832
45.6	-0.00128538
45.7	-0.00132886
45.8	-0.00137319
45.9	-0.00141494
46	-0.00145077
46.1	-0.00148154
46.2	-0.00150816
46.3	-0.00153116
46.4	-0.00155217
46.5	-0.00157323
46.6	-0.00158842
46.7	-0.00159556
46.8	-0.00159855
46.9	-0.00159731
47	-0.00159261
47.1	-0.00159038
47.2	-0.00158952
47.3	-0.0015859
47.4	-0.00157627
47.5	-0.00156155
47.6	-0.00154213
47.7	-0.00151758
47.8	-0.00149331
47.9	-0.00147544
48	-0.00146229
48.1	-0.00145283
48.2	-0.00144295
48.3	-0.00143948
48.4	-0.00143684
48.5	-0.00142874
48.6	-0.00141899
48.7	-0.00140879
48.8	-0.00139733
48.9	-0.00138862
49	-0.00137916
49.1	-0.00137334
49.2	-0.00137392
49.3	-0.00137871
49.4	-0.00138707
49.5	-0.00139611
49.6	-0.00140501
49.7	-0.00141316
49.8	-0.00142465
49.9	-0.00144079
50	-0.0014601
50.1	-0.00148315
50.2	-0.00150834
50.3	-0.00153234
50.4	-0.00155241
50.5	-0.00157558
50.6	-0.00160245
50.7	-0.0016311
50.8	-0.00166035
50.9	-0.00169249
51	-0.00172342
51.1	-0.00175014
51.2	-0.00177533
51.3	-0.00179905
51.4	-0.00182202
51.5	-0.00184353
51.6	-0.00185924
51.7	-0.00187509
51.8	-0.00189068
51.9	-0.00190466
52	-0.00191856
52.1	-0.0019313
52.2	-0.00194212
52.3	-0.00195184
52.4	-0.00196475
52.5	-0.00197333
52.6	-0.0019815
52.7	-0.00198787
52.8	-0.00199383
52.9	-0.00199922
53	-0.00200477
53.1	-0.00201043
53.2	-0.0020201
53.3	-0.00203249
53.4	-0.00205371
53.5	-0.00207898
53.6	-0.00210224
53.7	-0.00212219
53.8	-0.00213808
53.9	-0.00215284
54	-0.00216334
54.1	-0.00217132
54.2	-0.0021757
54.3	-0.0021782
54.4	-0.00218357
54.5	-0.00219208
54.6	-0.00220115
54.7	-0.00221284
54.8	-0.00222737
54.9	-0.00224283
55	-0.00225168
55.1	-0.00225721
55.2	-0.00225882
55.3	-0.00225701
55.4	-0.00224828
55.5	-0.00223552
55.6	-0.00222134
55.7	-0.00221256
55.8	-0.00220541
55.9	-0.00219753
56	-0.00219004
56.1	-0.00218351
56.2	-0.00217755
56.3	-0.00217296
56.4	-0.00216924
56.5	-0.00216811
56.6	-0.00217564
56.7	-0.00218899
56.8	-0.00220196
56.9	-0.0022137
57	-0.00222184
57.1	-0.00222636
57.2	-0.00222903
57.3	-0.00222857
57.4	-0.00222955
57.5	-0.00223034
57.6	-0.00223235
57.7	-0.00223568
57.8	-0.00224155
57.9	-0.00224933
58	-0.0022619
58.1	-0.00227602
58.2	-0.00228816
58.3	-0.00229715
58.4	-0.0023108
58.5	-0.00232632
58.6	-0.00234278
58.7	-0.00235783
58.8	-0.00237326
58.9	-0.00238456
59	-0.00239358
59.1	-0.00240054
59.2	-0.00241218
59.3	-0.00242763
59.4	-0.00244466
59.5	-0.0024596
59.6	-0.00247623
59.7	-0.00250016
59.8	-0.00253008
59.9	-0.00256131
60	-0.00259345
60.1	-0.00262646
60.2	-0.00265955
60.3	-0.00269518
60.4	-0.00273603
60.5	-0.00277611
60.6	-0.00281585
60.7	-0.00285465
60.8	-0.00289321
60.9	-0.00292246
61	-0.00293825
61.1	-0.00295135
61.2	-0.00295839
61.3	-0.00296335
61.4	-0.00296802
61.5	-0.00297327
61.6	-0.00297876
61.7	-0.00299204
61.8	-0.00300719
61.9	-0.00302249
62	-0.00303742
62.1	-0.00304887
62.2	-0.0030562
62.3	-0.00306288
62.4	-0.00306852
62.5	-0.00307757
62.6	-0.0030846
62.7	-0.00308536
62.8	-0.0030779
62.9	-0.00306556
63	-0.00304893
63.1	-0.00303017
63.2	-0.00300876
63.3	-0.00298543
63.4	-0.0029575
63.5	-0.00293051
63.6	-0.00289958
63.7	-0.00286708
63.8	-0.00283622
63.9	-0.00280883
64	-0.00278141
64.1	-0.00275226
64.2	-0.00272083
64.3	-0.002691
64.4	-0.0026611
64.5	-0.00263082
64.6	-0.00260313
64.7	-0.00257084
64.8	-0.00253222
64.9	-0.00249741
65	-0.00246661
65.1	-0.00243801
65.2	-0.00240835
65.3	-0.00238026
65.4	-0.00235459
65.5	-0.0023301
65.6	-0.00230974
65.7	-0.00228916
65.8	-0.00226628
65.9	-0.00224268
66	-0.00221909
66.1	-0.00220123
66.2	-0.00219043
66.3	-0.0021923
66.4	-0.00220171
66.5	-0.00221883
66.6	-0.00223609
66.7	-0.00225696
66.8	-0.00228048
66.9	-0.00230782
67	-0.00233707
67.1	-0.00236563
67.2	-0.00239229
67.3	-0.00241451
67.4	-0.00243035
67.5	-0.00243786
67.6	-0.00244489
67.7	-0.00245234
67.8	-0.00246316
67.9	-0.002476
68	-0.00249308
68.1	-0.00251195
68.2	-0.00253561
68.3	-0.00256274
68.4	-0.00259155
68.5	-0.00262281
68.6	-0.00265514
68.7	-0.00268975
68.8	-0.00272649
68.9	-0.0027649
69	-0.00280349
69.1	-0.0028384
69.2	-0.00286472
69.3	-0.00288872
69.4	-0.00291007
69.5	-0.00293497
69.6	-0.00295904
69.7	-0.00298243
69.8	-0.00300677
69.9	-0.00303581
70	-0.00306123
70.1	-0.00308586
70.2	-0.00311221
70.3	-0.00314168
70.4	-0.00317087
70.5	-0.00319537
70.6	-0.00321208
70.7	-0.00322561
70.8	-0.00323503
70.9	-0.00324077
71	-0.00324289
71.1	-0.00323964
71.2	-0.00323026
71.3	-0.00321335
71.4	-0.00319284
71.5	-0.00317055
71.6	-0.00315077
71.7	-0.00313458
71.8	-0.00311584
71.9	-0.00309744
72	-0.00307958
72.1	-0.00306127
72.2	-0.00304212
72.3	-0.00302882
72.4	-0.00301862
72.5	-0.00300741
72.6	-0.00299677
72.7	-0.0029842
72.8	-0.00297004
72.9	-0.00295725
73	-0.00294609
73.1	-0.00292947
73.2	-0.00291124
73.3	-0.00289061
73.4	-0.00287197
73.5	-0.00285363
73.6	-0.00283538
73.7	-0.00281343
73.8	-0.002789
73.9	-0.00276211
74	-0.0027345
74.1	-0.0027095
74.2	-0.00268333
74.3	-0.00265637
74.4	-0.00263089
74.5	-0.00260153
74.6	-0.00257334
74.7	-0.00254752
74.8	-0.00252334
74.9	-0.0024997
75	-0.00247981
75.1	-0.00245909
75.2	-0.0024318
75.3	-0.00239951
75.4	-0.00236508
75.5	-0.00232644
75.6	-0.0022854
75.7	-0.0022385
75.8	-0.00219211
75.9	-0.00214622
76	-0.00210027
76.1	-0.00205691
76.2	-0.0020132
76.3	-0.00196869
76.4	-0.00193195
76.5	-0.00190058
76.6	-0.00186975
76.7	-0.00183727
76.8	-0.00180383
76.9	-0.00176839
77	-0.00173515
77.1	-0.00170416
77.2	-0.00167617
77.3	-0.00165768
77.4	-0.00163925
77.5	-0.00161581
77.6	-0.00159096
77.7	-0.00156237
77.8	-0.00153199
77.9	-0.00150191
78	-0.00147043
78.1	-0.00144249
78.2	-0.00142086
78.3	-0.0014011
78.4	-0.00138431
78.5	-0.00136787
78.6	-0.00135271
78.7	-0.00134035
78.8	-0.00132999
78.9	-0.00131867
79	-0.00130468
79.1	-0.00129113
79.2	-0.00127617
79.3	-0.00126015
79.4	-0.00124056
79.5	-0.00121796
79.6	-0.00119235
79.7	-0.00116183
79.8	-0.00112664
79.9	-0.00108396
80	-0.00103515
80.1	-0.000986017
80.2	-0.000942968
80.3	-0.000902291
80.4	-0.000867945
80.5	-0.000839051
80.6	-0.00081334
80.7	-0.000785269
80.8	-0.000758037
80.9	-0.000730156
81	-0.000707263
81.1	-0.000686463
81.2	-0.000665141
81.3	-0.000640145
81.4	-0.000613473
81.5	-0.000588548
81.6	-0.000568741
81.7	-0.000550846
81.8	-0.000537315
81.9	-0.000524883
82	-0.000518051
82.1	-0.000518401
82.2	-0.000523251
82.3	-0.000528817
82.4	-0.000538746
82.5	-0.000547796
82.6	-0.000557252
82.7	-0.000564322
82.8	-0.000571645
82.9	-0.000577808
83	-0.000582514
83.1	-0.000586861
83.2	-0.000589108
83.3	-0.000594307
83.4	-0.000601078
83.5	-0.000603825
83.6	-0.000604634
83.7	-0.000605604
83.8	-0.000600677
83.9	-0.000597474
84	-0.000594409
84.1	-0.00058952
84.2	-0.000582836
84.3	-0.000573801
84.4	-0.000561243
84.5	-0.000544371
84.6	-0.000527698
84.7	-0.000511193
84.8	-0.000490774
84.9	-0.000468882
85	-0.00044666
85.1	-0.000424483
85.2	-0.000403079
85.3	-0.000382282
85.4	-0.000361509
85.5	-0.000341245
85.6	-0.000315185
85.7	-0.00028746
85.8	-0.000261302
85.9	-0.000237272
86	-0.000214134
86.1	-0.000187819
86.2	-0.000158816
86.3	-0.000131451
86.4	-0.000106733
86.5	-8.01848e-05
86.6	-5.68963e-05
86.7	-3.47724e-05
86.8	-1.34104e-05
86.9	4.8527e-06
87	1.96975e-05
87.1	2.7118e-05
87.2	2.92402e-05
87.3	2.82348e-05
87.4	2.71804e-05
87.5	2.86288e-05
87.6	3.32018e-05
87.7	4.15367e-05
87.8	5.35726e-05
87.9	6.96788e-05
88	8.93929e-05
88.1	0.00010765
88.2	0.000126665
88.3	0.000152519
88.4	0.000182748
88.5	0.000210603
88.6	0.000231399
88.7	0.000246877
88.8	0.000255649
88.9	0.000262905
89	0.000275834
89.1	0.000294363
89.2	0.000320966
89.3	0.000351934
89.4	0.000390788
89.5	0.000436693
89.6	0.000487093
89.7	0.000540231
89.8	0.00058683
89.9	0.000631271
90	0.000676031
90.1	0.00072116
90.2	0.000767202
90.3	0.000812045
90.4	0.000855322
90.5	0.00089465
90.6	0.000933215
90.7	0.000977488
90.8	0.00102265
90.9	0.00106701
91	0.00110631
91.1	0.00113895
91.2	0.00116797
91.3	0.00119639
91.4	0.00122403
91.5	0.00124678
91.6	0.00126581
91.7	0.00128657
91.8	0.00130517
91.9	0.00131694
92	0.00132602
92.1	0.00133364
92.2	0.00134537
92.3	0.00136044
92.4	0.0013748
92.5	0.00138461
92.6	0.00139238
92.7	0.00139753
92.8	0.00139983
92.9	0.00140501
93	0.00141221
93.1	0.00141983
93.2	0.001429
93.3	0.00143219
93.4	0.00142987
93.5	0.00142527
93.6	0.00141772
93.7	0.00140649
93.8	0.00139559
93.9	0.00138357
94	0.00137277
94.1	0.00136382
94.2	0.00135703
94.3	0.00134973
94.4	0.00133947
94.5	0.0013259
94.6	0.00130754
94.7	0.00128417
94.8	0.0012548
94.9	0.00122077
95	0.00118552
95.1	0.0011551
95.2	0.00112657
95.3	0.00109933
95.4	0.00107208
95.5	0.00104812
95.6	0.00102102
95.7	0.000995146
95.8	0.000969112
95.9	0.000942168
96	0.000916494
96.1	0.000899255
96.2	0.000888617
96.3	0.000883637
96.4	0.000881673
96.5	0.000880941
96.6	0.000869966
96.7	0.000854123
96.8	0.000835481
96.9	0.000818004
97	0.000798463
97.1	0.000776266
97.2	0.000753375
97.3	0.000729142
97.4	0.000707172
97.5	0.000683388
97.6	0.000663796
97.7	0.000648158
97.8	0.000637504
97.9	0.000626732
98	0.000614058
98.1	0.000598695
98.2	0.000578376
98.3	0.000554159
98.4	0.000528692
98.5	0.000502148
98.6	0.00047188
98.7	0.000443887
98.8	0.000420656
98.9	0.000401535
99	0.000387161
99.1	0.000368449
99.2	0.000347528
99.3	0.000323486
99.4	0.000297714
99.5	0.000274999
99.6	0.000252347
99.7	0.000231952
99.8	0.000213635
99.9	0.000197273
100	0.00018299
100.1	0.000169459
100.2	0.000155564
100.3	0.000136805
100.4	0.000110973
100.5	8.2639e-05
100.6	5.68136e-05
100.7	3.05826e-05
100.8	1.38887e-05
100.9	6.2318e-06
101	4.46315e-06
101.1	-2.00924e-07
101.2	-4.7358e-07
101.3	8.27584e-07
101.4	8.59933e-06
101.5	2.07851e-05
101.6	3.15295e-05
101.7	3.89854e-05
101.8	4.25649e-05
101.9	3.96633e-05
102	3.8264e-05
102.1	4.04696e-05
102.2	4.38511e-05
102.3	4.9457e-05
102.4	5.8777e-05
102.5	7.03423e-05
102.6	8.46399e-05
102.7	0.000104243
102.8	0.000127802
102.9	0.000158361
103	0.000190858
103.1	0.000219279
103.2	0.000241753
103.3	0.000263282
103.4	0.000280651
103.5	0.000295535
103.6	0.000314227
103.7	0.000332911
103.8	0.000348788
103.9	0.000359168
104	0.000369607
104.1	0.000383061
104.2	0.000393903
104.3	0.000401632
104.4	0.000404985
104.5	0.000406219
104.6	0.000403067
104.7	0.000402426
104.8	0.000403887
104.9	0.000411725
105	0.000423738
105.1	0.000433136
105.2	0.000442712
105.3	0.000452848
105.4	0.000461561
105.5	0.000468245
105.6	0.000470871
105.7	0.000469523
105.8	0.000468679
105.9	0.000469067
106	0.000469497
106.1	0.000472988
106.2	0.000474469
106.3	0.000475022
106.4	0.000474691
106.5	0.000471178
106.6	0.000463495
106.7	0.0004576
106.8	0.000454877
106.9	0.000453757
107	0.000451863
107.1	0.000448571
107.2	0.000447303
107.3	0.000448233
107.4	0.000448811
107.5	0.000453508
107.6	0.00046135
107.7	0.000469186
107.8	0.000474678
107.9	0.000476776
108	0.000476505
108.1	0.000476533
108.2	0.000472495
108.3	0.000468617
108.4	0.000463307
108.5	0.000459776
108.6	0.000463891
108.7	0.000472387
108.8	0.000486352
108.9	0.000502314
109	0.000519656
109.1	0.000539029
109.2	0.00055686
109.3	0.000568035
109.4	0.00057538
109.5	0.000580196
109.6	0.000583398
109.7	0.000585598
109.8	0.000586564
109.9	0.000586444
110	0.000583461
110.1	0.000577709
110.2	0.000566282
110.3	0.000557731
110.4	0.000551575
110.5	0.000546729
110.6	0.000540706
110.7	0.000537256
110.8	0.000533126
110.9	0.000526804
111	0.000520431
111.1	0.000503402
111.2	0.000480582
111.3	0.000451306
111.4	0.000421637
111.5	0.000388824
111.6	0.000352658
111.7	0.000319174
111.8	0.000291882
111.9	0.000266966
112	0.000241119
112.1	0.000217067
112.2	0.000195511
112.3	0.000175689
112.4	0.000153225
112.5	0.000123892
112.6	8.53061e-05
112.7	4.58774e-05
112.8	6.93295e-06
112.9	-2.66823e-05
113	-5.44814e-05
113.1	-7.75588e-05
113.2	-9.56057e-05
113.3	-0.000113607
113.4	-0.000135876
113.5	-0.000157118
113.6	-0.000172481
113.7	-0.000184986
113.8	-0.000195123
113.9	-0.000204961
114	-0.000207789
114.1	-0.000205786
114.2	-0.000198495
114.3	-0.000184354
114.4	-0.000165604
114.5	-0.000147027
114.6	-0.000133006
114.7	-0.000115288
114.8	-9.53699e-05
114.9	-7.51713e-05
115	-5.57898e-05
115.1	-3.95072e-05
115.2	-2.46421e-05
115.3	-1.15691e-05
115.4	8.37197e-06
115.5	3.4746e-05
115.6	6.32072e-05
115.7	9.64687e-05
115.8	0.000133393
115.9	0.000170893
116	0.000212092
116.1	0.000254197
116.2	0.000300542
116.3	0.000346033
116.4	0.000392283
116.5	0.000437817
116.6	0.000481419
116.7	0.000521611
116.8	0.000557797
116.9	0.000586794
117	0.000611651
117.1	0.000630798
117.2	0.000647615
117.3	0.000660088
117.4	0.000677283
117.5	0.000694656
117.6	0.000710519
117.7	0.000725836
117.8	0.000737894
117.9	0.000746183
118	0.000753317
118.1	0.000762184
118.2	0.000777027
118.3	0.000800499
118.4	0.000828962
118.5	0.000854136
118.6	0.000876921
118.7	0.000900043
118.8	0.000924373
118.9	0.000944675
119	0.000968477
119.1	0.000990618
119.2	0.00100653
119.3	0.00101844
119.4	0.00103152
119.5	0.00104045
119.6	0.00104833
119.7	0.0010525
119.8	0.0010532
119.9	0.00105171
120	0.00104815
120.1	0.00104606
120.2	0.00104646
120.3	0.00104792
120.4	0.00105339
120.5	0.00106287
120.6	0.00107615
120.7	0.00108851
120.8	0.00110357
120.9	0.00111344
121	0.00112437
121.1	0.00113831
121.2	0.00115458
121.3	0.00116804
121.4	0.00117828
121.5	0.0011843
121.6	0.00119174
121.7	0.00120581
121.8	0.00122643
121.9	0.00124839
122	0.00126968
122.1	0.00129253
122.2	0.00131618
122.3	0.00134291
122.4	0.00137032
122.5	0.00139891
122.6	0.00142499
122.7	0.00144686
122.8	0.00147072
122.9	0.00149388
123	0.00151234
123.1	0.00152494
123.2	0.0015358
123.3	0.00154947
123.4	0.00156063
123.5	0.00157219
123.6	0.00158025
123.7	0.00158276
123.8	0.00158392
123.9	0.00158369
