LagTime	Correlation

0	0.667383
0.1	0.662362
0.2	0.654874
0.3	0.646833
0.4	0.638729
0.5	0.630687
0.6	0.622737
0.7	0.61489
0.8	0.607142
0.9	0.599495
1	0.591945
1.1	0.584486
1.2	0.577119
1.3	0.569851
1.4	0.562682
1.5	0.555609
1.6	0.548628
1.7	0.541736
1.8	0.534932
1.9	0.528212
2	0.521577
2.1	0.515022
2.2	0.508554
2.3	0.502163
2.4	0.495848
2.5	0.489609
2.6	0.48344
2.7	0.47735
2.8	0.471341
2.9	0.465413
3	0.459556
3.1	0.453774
3.2	0.448067
3.3	0.44243
3.4	0.436862
3.5	0.431365
3.6	0.42594
3.7	0.420585
3.8	0.415304
3.9	0.410092
4	0.404948
4.1	0.399871
4.2	0.394861
4.3	0.389919
4.4	0.385042
4.5	0.380226
4.6	0.375475
4.7	0.370787
4.8	0.366163
4.9	0.3616
5	0.357095
5.1	0.352643
5.2	0.348249
5.3	0.34391
5.4	0.339623
5.5	0.335388
5.6	0.331207
5.7	0.327079
5.8	0.323
5.9	0.318969
6	0.314989
6.1	0.311059
6.2	0.307179
6.3	0.303347
6.4	0.299563
6.5	0.295825
6.6	0.292135
6.7	0.28849
6.8	0.284892
6.9	0.281347
7	0.277854
7.1	0.274405
7.2	0.270997
7.3	0.267629
7.4	0.264301
7.5	0.261013
7.6	0.257762
7.7	0.254543
7.8	0.251361
7.9	0.248218
8	0.245114
8.1	0.242049
8.2	0.239016
8.3	0.23602
8.4	0.233061
8.5	0.230136
8.6	0.227246
8.7	0.224393
8.8	0.221575
8.9	0.218789
9	0.216037
9.1	0.213317
9.2	0.210635
9.3	0.207989
9.4	0.205375
9.5	0.202791
9.6	0.200239
9.7	0.197718
9.8	0.195225
9.9	0.192759
10	0.190323
10.1	0.187917
10.2	0.185537
10.3	0.183186
10.4	0.180863
10.5	0.178564
10.6	0.176291
10.7	0.174045
10.8	0.171826
10.9	0.169638
11	0.167478
11.1	0.165345
11.2	0.163241
11.3	0.161164
11.4	0.159111
11.5	0.157086
11.6	0.155088
11.7	0.153117
11.8	0.151168
11.9	0.149245
12	0.147348
12.1	0.145473
12.2	0.143619
12.3	0.141787
12.4	0.139973
12.5	0.138182
12.6	0.136416
12.7	0.134671
12.8	0.13295
12.9	0.13125
13	0.129574
13.1	0.127921
13.2	0.126295
13.3	0.124687
13.4	0.1231
13.5	0.121528
13.6	0.119976
13.7	0.11845
13.8	0.116947
13.9	0.115466
14	0.114002
14.1	0.112557
14.2	0.111129
14.3	0.109718
14.4	0.108324
14.5	0.106948
14.6	0.105588
14.7	0.104241
14.8	0.102909
14.9	0.101596
15	0.100306
15.1	0.0990321
15.2	0.0977754
15.3	0.0965358
15.4	0.0953143
15.5	0.0941151
15.6	0.0929392
15.7	0.0917837
15.8	0.0906478
15.9	0.0895246
16	0.0884126
16.1	0.0873086
16.2	0.0862148
16.3	0.0851345
16.4	0.0840629
16.5	0.0830044
16.6	0.0819586
16.7	0.0809237
16.8	0.079906
16.9	0.0789023
17	0.0779111
17.1	0.0769328
17.2	0.0759718
17.3	0.0750251
17.4	0.0740917
17.5	0.0731708
17.6	0.0722613
17.7	0.0713616
17.8	0.0704674
17.9	0.0695819
18	0.0687069
18.1	0.0678396
18.2	0.0669796
18.3	0.0661257
18.4	0.0652821
18.5	0.0644511
18.6	0.0636337
18.7	0.0628264
18.8	0.0620294
18.9	0.0612425
19	0.0604629
19.1	0.0596931
19.2	0.0589375
19.3	0.0581919
19.4	0.0574502
19.5	0.0567166
19.6	0.0559894
19.7	0.0552664
19.8	0.0545491
19.9	0.0538407
20	0.0531407
20.1	0.0524565
20.2	0.0517848
20.3	0.0511235
20.4	0.0504721
20.5	0.0498257
20.6	0.0491821
20.7	0.0485409
20.8	0.0479082
20.9	0.0472798
21	0.0466516
21.1	0.046025
21.2	0.0454078
21.3	0.0447973
21.4	0.0441992
21.5	0.0436111
21.6	0.0430325
21.7	0.0424627
21.8	0.0418969
21.9	0.0413327
22	0.0407751
22.1	0.0402246
22.2	0.0396801
22.3	0.0391429
22.4	0.0386185
22.5	0.0381032
22.6	0.037593
22.7	0.0370855
22.8	0.0365848
22.9	0.0360883
23	0.0355965
23.1	0.0351102
23.2	0.034632
23.3	0.0341619
23.4	0.0336943
23.5	0.0332294
23.6	0.0327715
23.7	0.0323151
23.8	0.0318601
23.9	0.0314081
24	0.0309622
24.1	0.0305232
24.2	0.0300916
24.3	0.0296675
24.4	0.0292528
24.5	0.0288497
24.6	0.0284586
24.7	0.0280789
24.8	0.0277053
24.9	0.0273407
25	0.0269819
25.1	0.026628
25.2	0.0262781
25.3	0.0259375
25.4	0.0256017
25.5	0.0252684
25.6	0.0249391
25.7	0.0246203
25.8	0.0243091
25.9	0.0240103
26	0.0237208
26.1	0.0234378
26.2	0.023158
26.3	0.0228749
26.4	0.0225888
26.5	0.0223064
26.6	0.0220301
26.7	0.0217568
26.8	0.0214848
26.9	0.0212139
27	0.0209436
27.1	0.0206768
27.2	0.0204149
27.3	0.0201594
27.4	0.0199084
27.5	0.0196569
27.6	0.0194072
27.7	0.0191636
27.8	0.0189303
27.9	0.0187079
28	0.0184959
28.1	0.0182903
28.2	0.0180897
28.3	0.0178928
28.4	0.0176992
28.5	0.0175099
28.6	0.0173261
28.7	0.0171441
28.8	0.0169678
28.9	0.0167998
29	0.0166318
29.1	0.0164699
29.2	0.0163098
29.3	0.0161464
29.4	0.0159828
29.5	0.0158183
29.6	0.0156547
29.7	0.0154913
29.8	0.0153329
29.9	0.0151743
30	0.0150155
30.1	0.0148603
30.2	0.0147101
30.3	0.0145653
30.4	0.0144216
30.5	0.0142822
30.6	0.0141439
30.7	0.0140076
30.8	0.0138679
30.9	0.0137314
31	0.0135953
31.1	0.0134569
31.2	0.0133176
31.3	0.0131774
31.4	0.0130383
31.5	0.012896
31.6	0.0127559
31.7	0.0126216
31.8	0.0124954
31.9	0.0123747
32	0.01226
32.1	0.0121453
32.2	0.0120338
32.3	0.0119243
32.4	0.0118123
32.5	0.0117005
32.6	0.0115884
32.7	0.0114719
32.8	0.0113548
32.9	0.0112389
33	0.0111228
33.1	0.0110081
33.2	0.0108933
33.3	0.0107798
33.4	0.0106721
33.5	0.0105677
33.6	0.0104666
33.7	0.0103676
33.8	0.01027
33.9	0.0101735
34	0.0100893
34.1	0.0100153
34.2	0.00995353
34.3	0.0098966
34.4	0.00984489
34.5	0.00979811
34.6	0.00975762
34.7	0.0097245
34.8	0.00969806
34.9	0.00967232
35	0.00964773
35.1	0.00962312
35.2	0.00959672
35.3	0.00957585
35.4	0.00956201
35.5	0.00954837
35.6	0.00953568
35.7	0.00952402
35.8	0.00951344
35.9	0.0094985
36	0.00947696
36.1	0.00945726
36.2	0.00943795
36.3	0.00941672
36.4	0.00939512
36.5	0.00937677
36.6	0.00935744
36.7	0.00933496
36.8	0.00930949
36.9	0.00928058
37	0.00924752
37.1	0.00921132
37.2	0.0091734
37.3	0.00913383
37.4	0.00909139
37.5	0.00905157
37.6	0.00901502
37.7	0.0089779
37.8	0.00893648
37.9	0.00889206
38	0.00884735
38.1	0.00879849
38.2	0.00874974
38.3	0.00870303
38.4	0.0086541
38.5	0.00860251
38.6	0.00854563
38.7	0.00848624
38.8	0.00842662
38.9	0.00837457
39	0.00832688
39.1	0.00827809
39.2	0.008235
39.3	0.00819971
39.4	0.00816535
39.5	0.00812813
39.6	0.00808873
39.7	0.00805035
39.8	0.00801277
39.9	0.00797184
40	0.00793303
40.1	0.00789917
40.2	0.00786665
40.3	0.00783353
40.4	0.00779878
40.5	0.00776387
40.6	0.00773048
40.7	0.00770123
40.8	0.00767188
40.9	0.00764957
41	0.0076299
41.1	0.00760784
41.2	0.0075837
41.3	0.00755564
41.4	0.00752685
41.5	0.00750291
41.6	0.00747907
41.7	0.00744961
41.8	0.00741617
41.9	0.00738548
42	0.00735658
42.1	0.00732356
42.2	0.00729197
42.3	0.00726614
42.4	0.00724273
42.5	0.00722254
42.6	0.00720147
42.7	0.00718218
42.8	0.00716371
42.9	0.00714851
43	0.00713581
43.1	0.0071235
43.2	0.00711089
43.3	0.0070999
43.4	0.00709043
43.5	0.00707874
43.6	0.0070591
43.7	0.0070319
43.8	0.00699782
43.9	0.00695774
44	0.00691519
44.1	0.00687243
44.2	0.00683049
44.3	0.00679192
44.4	0.00675597
44.5	0.00672564
44.6	0.00670066
44.7	0.00668485
44.8	0.00667093
44.9	0.00665904
45	0.00664724
45.1	0.00663771
45.2	0.00662805
45.3	0.00661763
45.4	0.00661114
45.5	0.00660658
45.6	0.00660558
45.7	0.00660806
45.8	0.00661328
45.9	0.00661672
46	0.00661775
46.1	0.00661681
46.2	0.00660984
46.3	0.00659247
46.4	0.00656717
46.5	0.00653544
46.6	0.00649647
46.7	0.00645157
46.8	0.00640575
46.9	0.00635633
47	0.00630784
47.1	0.00625891
47.2	0.00620576
47.3	0.0061548
47.4	0.00610746
47.5	0.00605689
47.6	0.00600542
47.7	0.00595576
47.8	0.00589966
47.9	0.00583881
48	0.00577937
48.1	0.0057133
48.2	0.00564377
48.3	0.00557134
48.4	0.00549597
48.5	0.00542136
48.6	0.00534587
48.7	0.00527137
48.8	0.0051985
48.9	0.00512805
49	0.00505716
49.1	0.00498758
49.2	0.00491996
49.3	0.00485325
49.4	0.0047899
49.5	0.00473036
49.6	0.00466922
49.7	0.00461162
49.8	0.00455916
49.9	0.00450234
50	0.00444468
50.1	0.00438991
50.2	0.00433473
50.3	0.00427665
50.4	0.00421716
50.5	0.00415316
50.6	0.0040882
50.7	0.00401802
50.8	0.00394965
50.9	0.00388377
51	0.00381653
51.1	0.00374539
51.2	0.00367684
51.3	0.00361145
51.4	0.00355174
51.5	0.00349317
51.6	0.00343366
51.7	0.0033715
51.8	0.00330425
51.9	0.00323518
52	0.00316446
52.1	0.0030946
52.2	0.00302482
52.3	0.00295491
52.4	0.00288564
52.5	0.0028181
52.6	0.00275496
52.7	0.00269611
52.8	0.00264243
52.9	0.00259665
53	0.00255301
53.1	0.00251197
53.2	0.00247039
53.3	0.00242735
53.4	0.00237951
53.5	0.00232663
53.6	0.0022733
53.7	0.00222081
53.8	0.00217187
53.9	0.00212507
54	0.00207943
54.1	0.00203665
54.2	0.00199152
54.3	0.0019467
54.4	0.00190598
54.5	0.00186538
54.6	0.001825
54.7	0.00178479
54.8	0.00174443
54.9	0.00170796
55	0.00167374
55.1	0.00163782
55.2	0.00160063
55.3	0.00156436
55.4	0.00152409
55.5	0.00147557
55.6	0.00141833
55.7	0.00135407
55.8	0.00128368
55.9	0.00121491
56	0.00115221
56.1	0.00109498
56.2	0.0010409
56.3	0.000989012
56.4	0.000937034
56.5	0.000885808
56.6	0.000833662
56.7	0.000779484
56.8	0.000731578
56.9	0.000690763
57	0.000651381
57.1	0.000611007
57.2	0.000570364
57.3	0.000531819
57.4	0.00049287
57.5	0.000450853
57.6	0.000405837
57.7	0.000358071
57.8	0.000314476
57.9	0.000276093
58	0.000241786
58.1	0.000212396
58.2	0.000186634
58.3	0.000162368
58.4	0.000136737
58.5	0.000110335
58.6	8.34723e-05
58.7	6.20601e-05
58.8	4.45233e-05
58.9	2.3318e-05
59	-2.68724e-06
59.1	-3.00436e-05
59.2	-5.46757e-05
59.3	-7.4009e-05
59.4	-9.06419e-05
59.5	-0.000105806
59.6	-0.000121427
59.7	-0.000139494
59.8	-0.00016249
59.9	-0.000182919
60	-0.000197184
60.1	-0.000207586
60.2	-0.000216064
60.3	-0.000219811
60.4	-0.000224857
60.5	-0.000233957
60.6	-0.000242492
60.7	-0.000253305
60.8	-0.000265304
60.9	-0.000278909
61	-0.000292931
61.1	-0.000306833
61.2	-0.000317983
61.3	-0.000327218
61.4	-0.000332974
61.5	-0.000334128
61.6	-0.000330089
61.7	-0.000325425
61.8	-0.000324219
61.9	-0.000324943
62	-0.000319615
62.1	-0.000309751
62.2	-0.000296812
62.3	-0.000278961
62.4	-0.000262146
62.5	-0.000246025
62.6	-0.0002314
62.7	-0.000215944
62.8	-0.000197376
62.9	-0.00017495
63	-0.000152195
63.1	-0.000135896
63.2	-0.000121763
63.3	-0.000110074
63.4	-0.00010042
63.5	-9.19901e-05
63.6	-8.81257e-05
63.7	-8.36453e-05
63.8	-7.95794e-05
63.9	-7.31997e-05
64	-6.97112e-05
64.1	-7.00398e-05
64.2	-7.40605e-05
64.3	-7.64176e-05
64.4	-7.85001e-05
64.5	-8.2165e-05
64.6	-8.51386e-05
64.7	-8.48262e-05
64.8	-8.40008e-05
64.9	-8.1328e-05
65	-8.16332e-05
65.1	-8.61969e-05
65.2	-9.0754e-05
65.3	-0.000100098
65.4	-0.000106892
65.5	-0.000113653
65.6	-0.000123075
65.7	-0.000132069
65.8	-0.000137075
65.9	-0.00014085
66	-0.000144856
66.1	-0.00014667
66.2	-0.000150319
66.3	-0.000153792
66.4	-0.000158324
66.5	-0.000163094
66.6	-0.000168933
66.7	-0.000173229
66.8	-0.000181585
66.9	-0.000190404
67	-0.000205356
67.1	-0.000219357
67.2	-0.000233385
67.3	-0.000246048
67.4	-0.000255191
67.5	-0.000264647
67.6	-0.000276942
67.7	-0.00029223
67.8	-0.000307624
67.9	-0.000322591
68	-0.000337049
68.1	-0.000352217
68.2	-0.000364961
68.3	-0.000378648
68.4	-0.000393232
68.5	-0.000408676
68.6	-0.000423131
68.7	-0.000438272
68.8	-0.000451474
68.9	-0.000459867
69	-0.000462912
69.1	-0.000467305
69.2	-0.000473027
69.3	-0.000476794
69.4	-0.000480024
69.5	-0.000481946
69.6	-0.000484056
69.7	-0.000483506
69.8	-0.000483535
69.9	-0.000486369
70	-0.000490155
70.1	-0.000492619
70.2	-0.000490741
70.3	-0.000484757
70.4	-0.00047498
70.5	-0.000464624
70.6	-0.000451909
70.7	-0.000439481
70.8	-0.00043359
70.9	-0.000428797
71	-0.000420981
71.1	-0.000415609
71.2	-0.000411886
71.3	-0.000410115
71.4	-0.000410245
71.5	-0.000409225
71.6	-0.000411125
71.7	-0.000418237
71.8	-0.000427992
71.9	-0.000442703
72	-0.000458878
72.1	-0.0004742
72.2	-0.000482953
72.3	-0.000489363
72.4	-0.000490566
72.5	-0.0004909
72.6	-0.000491397
72.7	-0.000494275
72.8	-0.000497229
72.9	-0.000499848
73	-0.000500378
73.1	-0.000498136
73.2	-0.000496781
73.3	-0.000495135
73.4	-0.000493027
73.5	-0.000491064
73.6	-0.000488083
73.7	-0.000482504
73.8	-0.000470151
73.9	-0.000455614
74	-0.000439673
74.1	-0.000420287
74.2	-0.000400674
74.3	-0.000389875
74.4	-0.000379752
74.5	-0.000373491
74.6	-0.000368864
74.7	-0.000362817
74.8	-0.00034915
74.9	-0.000336135
75	-0.000323917
75.1	-0.0003094
75.2	-0.000294006
75.3	-0.000280859
75.4	-0.000271278
75.5	-0.000262217
75.6	-0.000249508
75.7	-0.000233855
75.8	-0.000213177
75.9	-0.000189213
76	-0.000162027
76.1	-0.000134233
76.2	-0.000101941
76.3	-6.75096e-05
76.4	-3.36716e-05
76.5	9.77848e-07
76.6	3.17506e-05
76.7	6.21458e-05
76.8	9.45113e-05
76.9	0.000127799
77	0.000159647
77.1	0.000196071
77.2	0.00023266
77.3	0.000272298
77.4	0.000312663
77.5	0.000347312
77.6	0.000382743
77.7	0.00041392
77.8	0.000444802
77.9	0.000471646
78	0.000501697
78.1	0.000526278
78.2	0.000548799
78.3	0.000567874
78.4	0.000582506
78.5	0.000591921
78.6	0.000602296
78.7	0.000614382
78.8	0.000625896
78.9	0.00063128
79	0.000631028
79.1	0.000628484
79.2	0.0006284
79.3	0.000633965
79.4	0.000637224
79.5	0.00063541
79.6	0.000627638
79.7	0.000620847
79.8	0.000621283
79.9	0.000626433
80	0.000633804
80.1	0.000647298
80.2	0.00066264
80.3	0.000679825
80.4	0.000697019
80.5	0.000710292
80.6	0.000725871
80.7	0.000741288
80.8	0.000753721
80.9	0.00076591
81	0.000779487
81.1	0.000792485
81.2	0.000804954
81.3	0.0008169
81.4	0.000830518
81.5	0.000846591
81.6	0.000863222
81.7	0.000875255
81.8	0.000887428
81.9	0.000898879
82	0.000910598
82.1	0.000924573
82.2	0.000935715
82.3	0.000949451
82.4	0.000964346
82.5	0.000976941
82.6	0.000986122
82.7	0.000994356
82.8	0.000999625
82.9	0.00100269
83	0.00100597
83.1	0.00100834
83.2	0.00100854
83.3	0.00100889
83.4	0.00100771
83.5	0.00100919
83.6	0.00100999
83.7	0.00100667
83.8	0.00100398
83.9	0.00100178
84	0.000998809
84.1	0.000998727
84.2	0.000999916
84.3	0.000998981
84.4	0.000995788
84.5	0.000990473
84.6	0.000983774
84.7	0.000977861
84.8	0.0009781
84.9	0.000983819
85	0.000996731
85.1	0.00101087
85.2	0.00102661
85.3	0.00103832
85.4	0.00105146
85.5	0.00106664
85.6	0.00108405
85.7	0.00110004
85.8	0.00111573
85.9	0.00112776
86	0.00113719
86.1	0.00114287
86.2	0.00114913
86.3	0.00115393
86.4	0.001162
86.5	0.00117145
86.6	0.00117793
86.7	0.00118131
86.8	0.00118776
86.9	0.00119934
87	0.00121425
87.1	0.00123337
87.2	0.00125424
87.3	0.00127123
87.4	0.00127882
87.5	0.00128194
87.6	0.00128194
87.7	0.00128207
87.8	0.00127999
87.9	0.00128081
88	0.00128153
88.1	0.0012812
88.2	0.00128457
88.3	0.00128459
88.4	0.00128361
88.5	0.00128133
88.6	0.00127559
88.7	0.00127062
88.8	0.00126997
88.9	0.0012666
89	0.00125532
89.1	0.00123963
89.2	0.00121979
89.3	0.00119818
89.4	0.00117428
89.5	0.00114349
89.6	0.00111754
89.7	0.00109375
89.8	0.00107098
89.9	0.00104701
90	0.00102547
90.1	0.00100942
90.2	0.000993613
90.3	0.000983379
90.4	0.000970622
90.5	0.000956185
90.6	0.000935452
90.7	0.000912737
90.8	0.000887142
90.9	0.000861369
91	0.000831133
91.1	0.000796922
91.2	0.000756996
91.3	0.000715624
91.4	0.00067225
91.5	0.000632743
91.6	0.000596398
91.7	0.000556353
91.8	0.000514944
91.9	0.000475555
92	0.000434512
92.1	0.000390525
92.2	0.000347534
92.3	0.000305574
92.4	0.000261609
92.5	0.000219618
92.6	0.000181733
92.7	0.000145525
92.8	0.000109771
92.9	7.696e-05
93	4.81588e-05
93.1	2.24207e-05
93.2	-1.15881e-06
93.3	-2.94956e-05
93.4	-5.98739e-05
93.5	-8.56459e-05
93.6	-0.00011166
93.7	-0.000130617
93.8	-0.000150385
93.9	-0.000175387
94	-0.000201457
94.1	-0.000223281
94.2	-0.00024021
94.3	-0.000256741
94.4	-0.000272577
94.5	-0.000285965
94.6	-0.000297964
94.7	-0.000309256
94.8	-0.000319273
94.9	-0.000322127
95	-0.000319186
95.1	-0.000310773
95.2	-0.000298569
95.3	-0.000280679
95.4	-0.000259354
95.5	-0.000238654
95.6	-0.000216354
95.7	-0.0001936
95.8	-0.000174903
95.9	-0.000161108
96	-0.000146229
96.1	-0.000128788
96.2	-0.000108428
96.3	-8.2024e-05
96.4	-5.3118e-05
96.5	-2.23992e-05
96.6	8.28172e-06
96.7	3.79815e-05
96.8	6.57297e-05
96.9	9.02357e-05
97	0.000108797
97.1	0.000128437
97.2	0.000154837
97.3	0.000184682
97.4	0.000215387
97.5	0.000248073
97.6	0.000273995
97.7	0.000305994
97.8	0.000342966
97.9	0.000380976
98	0.000422312
98.1	0.000465758
98.2	0.000511977
98.3	0.000552097
98.4	0.000589026
98.5	0.000625339
98.6	0.000665985
98.7	0.000706915
98.8	0.000747027
98.9	0.000788084
99	0.000833143
99.1	0.00088257
99.2	0.000935848
99.3	0.000989687
99.4	0.00104577
99.5	0.00110245
99.6	0.00115404
99.7	0.001199
99.8	0.00123963
99.9	0.00127562
100	0.00131107
100.1	0.00135065
100.2	0.00138858
100.3	0.0014287
100.4	0.0014711
100.5	0.00151305
100.6	0.00155052
100.7	0.0015829
100.8	0.00161397
100.9	0.00164661
101	0.00168269
101.1	0.001715
101.2	0.00174192
101.3	0.00176876
101.4	0.00179578
101.5	0.00182629
101.6	0.00185682
101.7	0.00188462
101.8	0.00190989
101.9	0.00193601
102	0.00196225
102.1	0.0019886
102.2	0.00201209
102.3	0.00203316
102.4	0.00205518
102.5	0.002074
102.6	0.002095
102.7	0.00211844
102.8	0.00214202
102.9	0.00216036
103	0.00217836
103.1	0.00219429
103.2	0.00220946
103.3	0.00221848
103.4	0.00222211
103.5	0.00221671
103.6	0.00220823
103.7	0.00219839
103.8	0.00218875
103.9	0.0021821
104	0.00217825
104.1	0.00217906
104.2	0.00218295
104.3	0.00218977
104.4	0.00220019
104.5	0.00220988
104.6	0.00222677
104.7	0.00224706
104.8	0.00226883
104.9	0.0022897
105	0.00230745
105.1	0.00231924
105.2	0.00233066
105.3	0.00233972
105.4	0.00235045
105.5	0.00235959
105.6	0.00236739
105.7	0.00237435
105.8	0.00238315
105.9	0.00239534
106	0.00240817
106.1	0.00242189
106.2	0.00243884
106.3	0.00246009
106.4	0.00247951
106.5	0.00249793
106.6	0.00252022
106.7	0.00254227
106.8	0.00256491
106.9	0.00258727
107	0.00260943
107.1	0.00263138
107.2	0.0026492
107.3	0.00265989
107.4	0.00266912
107.5	0.00267231
107.6	0.00267288
107.7	0.0026697
107.8	0.0026688
107.9	0.00266733
108	0.00265654
108.1	0.00263641
108.2	0.00261222
108.3	0.0025844
108.4	0.00255372
108.5	0.0025217
108.6	0.0024902
108.7	0.00246322
108.8	0.00243439
108.9	0.00240045
109	0.00236589
109.1	0.00233441
109.2	0.00230536
109.3	0.00227888
109.4	0.00225589
109.5	0.00223555
109.6	0.00221412
109.7	0.00219592
109.8	0.00218439
109.9	0.00217826
110	0.00217656
110.1	0.00217718
110.2	0.00217281
110.3	0.00216896
110.4	0.00216571
110.5	0.00215324
110.6	0.00214045
110.7	0.00213427
110.8	0.00213328
110.9	0.00213321
111	0.00213418
111.1	0.00213182
111.2	0.00212709
111.3	0.00212316
111.4	0.00212203
111.5	0.00212042
111.6	0.00211631
111.7	0.00210885
111.8	0.00210916
111.9	0.00211697
112	0.00212481
112.1	0.00212901
112.2	0.00213037
112.3	0.00212784
112.4	0.00212517
112.5	0.00211873
112.6	0.00211147
112.7	0.00210467
112.8	0.00209828
112.9	0.0020921
113	0.00209176
113.1	0.00209049
113.2	0.00208833
113.3	0.00208348
113.4	0.0020803
113.5	0.00208168
113.6	0.0020864
113.7	0.00209515
113.8	0.00210582
113.9	0.00211862
114	0.00213178
114.1	0.00214959
114.2	0.00216925
114.3	0.00219105
114.4	0.00221725
114.5	0.00224921
114.6	0.00228359
114.7	0.00232306
114.8	0.00236551
114.9	0.00240643
115	0.00244581
115.1	0.00248404
115.2	0.0025239
115.3	0.00256261
115.4	0.0025922
115.5	0.0026188
115.6	0.00264273
115.7	0.0026669
115.8	0.00269602
115.9	0.0027283
116	0.00275713
116.1	0.00278067
116.2	0.00280383
116.3	0.00282685
116.4	0.00284954
116.5	0.00287604
116.6	0.00290178
116.7	0.00292497
116.8	0.0029477
116.9	0.0029715
117	0.00299425
117.1	0.00302
117.2	0.00304072
117.3	0.00305648
117.4	0.003069
117.5	0.00308275
117.6	0.00309991
117.7	0.0031171
117.8	0.00312805
117.9	0.00313947
118	0.00314733
118.1	0.0031513
118.2	0.00316071
118.3	0.00317081
118.4	0.00317902
118.5	0.00318773
118.6	0.00319574
118.7	0.00320337
118.8	0.00320969
118.9	0.00321327
119	0.00321906
119.1	0.00322216
119.2	0.00322108
119.3	0.00321652
119.4	0.0032152
119.5	0.00321897
119.6	0.00322571
119.7	0.00323136
119.8	0.00324104
119.9	0.00325087
120	0.00326153
120.1	0.00327301
120.2	0.00328293
120.3	0.00328966
120.4	0.00329441
120.5	0.00329787
120.6	0.00329547
120.7	0.00329034
120.8	0.00328675
120.9	0.00328725
121	0.00328733
121.1	0.00328335
121.2	0.0032773
121.3	0.00327027
121.4	0.00326517
121.5	0.00326106
121.6	0.00325783
121.7	0.00325301
121.8	0.0032477
121.9	0.00323971
122	0.00323138
122.1	0.00322455
122.2	0.0032206
122.3	0.00321277
122.4	0.00320214
122.5	0.00319317
122.6	0.00317861
122.7	0.00316213
122.8	0.00314244
122.9	0.00312049
123	0.00309779
123.1	0.00307578
123.2	0.00305192
123.3	0.00303074
123.4	0.00301159
123.5	0.00299102
123.6	0.00296831
123.7	0.00294515
123.8	0.00292437
123.9	0.0029004
124	0.00287733
124.1	0.00285557
124.2	0.00282823
124.3	0.002801
124.4	0.00277387
124.5	0.00274903
124.6	0.00272887
124.7	0.00271244
124.8	0.00269132
124.9	0.00266882
125	0.00264312
125.1	0.0026104
125.2	0.00257791
125.3	0.0025495
125.4	0.0025222
125.5	0.00249563
125.6	0.0024677
125.7	0.0024381
